PE UV       SUBTECH     SPECTRUM    ASCII       PEDS        4.00        
   -1
100% or 0 Absorbance Baseline.Correction.Raw.asc
20/12/14
13:01:04.00
20/12/14
13:01:04.00
CNRS

300.000000
1
Lambda 850
850L1011221
PerkinElmer UV WinLab 6.0.3.0730 / 1.61.00 Lambda 800

0
0
2
0
0
UV/VIS
0
1
1
RBeamAtt,SBeamAtt,150mm sphere / downward view
0
0
0
0
Fix
 
0
0.2
0
0
0
 
 
 
0
 
0
319.2
0
Front
50
 
S:100 R:100
 
0
0
0
 
0
 
 
 
0
 
 
0
0
0
0
0
 
 
 
 
0
0


#HDR
-1
-1
#GR
nm
A
1.0
0.0
800.000000
-1.000000
501
8
0.023391
-0.068406
#DATA
800.000000	-0.067904
799.000000	-0.068406
798.000000	-0.068023
797.000000	-0.067191
796.000000	-0.067683
795.000000	-0.067396
794.000000	-0.066452
793.000000	-0.066611
792.000000	-0.065525
791.000000	-0.066115
790.000000	-0.065576
789.000000	-0.064646
788.000000	-0.065032
787.000000	-0.064998
786.000000	-0.064635
785.000000	-0.064526
784.000000	-0.064364
783.000000	-0.063851
782.000000	-0.063475
781.000000	-0.062609
780.000000	-0.063340
779.000000	-0.062217
778.000000	-0.062715
777.000000	-0.062532
776.000000	-0.061267
775.000000	-0.062008
774.000000	-0.061438
773.000000	-0.061896
772.000000	-0.061063
771.000000	-0.060934
770.000000	-0.061102
769.000000	-0.060043
768.000000	-0.059569
767.000000	-0.059168
766.000000	-0.059767
765.000000	-0.059721
764.000000	-0.059244
763.000000	-0.058471
762.000000	-0.058581
761.000000	-0.058630
760.000000	-0.057657
759.000000	-0.057348
758.000000	-0.057695
757.000000	-0.057028
756.000000	-0.056714
755.000000	-0.056380
754.000000	-0.055779
753.000000	-0.056028
752.000000	-0.055998
751.000000	-0.055548
750.000000	-0.054938
749.000000	-0.054836
748.000000	-0.055360
747.000000	-0.054680
746.000000	-0.054596
745.000000	-0.054745
744.000000	-0.054941
743.000000	-0.054369
742.000000	-0.054295
741.000000	-0.053871
740.000000	-0.054100
739.000000	-0.053731
738.000000	-0.053477
737.000000	-0.053470
736.000000	-0.053334
735.000000	-0.052930
734.000000	-0.052875
733.000000	-0.052723
732.000000	-0.051916
731.000000	-0.051948
730.000000	-0.051662
729.000000	-0.051577
728.000000	-0.051782
727.000000	-0.051542
726.000000	-0.051567
725.000000	-0.050855
724.000000	-0.051102
723.000000	-0.050783
722.000000	-0.050742
721.000000	-0.050314
720.000000	-0.050594
719.000000	-0.050291
718.000000	-0.049703
717.000000	-0.050011
716.000000	-0.050066
715.000000	-0.049533
714.000000	-0.049495
713.000000	-0.049688
712.000000	-0.049486
711.000000	-0.049377
710.000000	-0.049142
709.000000	-0.048680
708.000000	-0.048446
707.000000	-0.048340
706.000000	-0.048359
705.000000	-0.048594
704.000000	-0.048113
703.000000	-0.048053
702.000000	-0.048267
701.000000	-0.047878
700.000000	-0.047760
699.000000	-0.047800
698.000000	-0.047585
697.000000	-0.047216
696.000000	-0.047156
695.000000	-0.047317
694.000000	-0.047252
693.000000	-0.047186
692.000000	-0.046816
691.000000	-0.046361
690.000000	-0.046442
689.000000	-0.046227
688.000000	-0.046022
687.000000	-0.045915
686.000000	-0.045730
685.000000	-0.045713
684.000000	-0.045641
683.000000	-0.045678
682.000000	-0.045596
681.000000	-0.045264
680.000000	-0.045105
679.000000	-0.045275
678.000000	-0.045337
677.000000	-0.045045
676.000000	-0.044918
675.000000	-0.045061
674.000000	-0.044736
673.000000	-0.044431
672.000000	-0.044528
671.000000	-0.044527
670.000000	-0.044312
669.000000	-0.044253
668.000000	-0.044334
667.000000	-0.044250
666.000000	-0.044008
665.000000	-0.043992
664.000000	-0.044004
663.000000	-0.043939
662.000000	-0.043795
661.000000	-0.043607
660.000000	-0.043533
659.000000	-0.043384
658.000000	-0.043219
657.000000	-0.043274
656.000000	-0.043536
655.000000	-0.043342
654.000000	-0.043179
653.000000	-0.043051
652.000000	-0.042859
651.000000	-0.042906
650.000000	-0.042804
649.000000	-0.042722
648.000000	-0.042963
647.000000	-0.042597
646.000000	-0.042441
645.000000	-0.042446
644.000000	-0.042457
643.000000	-0.042536
642.000000	-0.042488
641.000000	-0.042316
640.000000	-0.042427
639.000000	-0.042287
638.000000	-0.042284
637.000000	-0.042156
636.000000	-0.041824
635.000000	-0.041980
634.000000	-0.042025
633.000000	-0.041839
632.000000	-0.041737
631.000000	-0.041679
630.000000	-0.041557
629.000000	-0.041592
628.000000	-0.041120
627.000000	-0.041434
626.000000	-0.041621
625.000000	-0.041401
624.000000	-0.041307
623.000000	-0.041271
622.000000	-0.041380
621.000000	-0.040841
620.000000	-0.041017
619.000000	-0.041046
618.000000	-0.040863
617.000000	-0.040799
616.000000	-0.040882
615.000000	-0.040742
614.000000	-0.040940
613.000000	-0.040982
612.000000	-0.040882
611.000000	-0.040954
610.000000	-0.040198
609.000000	-0.040319
608.000000	-0.040647
607.000000	-0.040253
606.000000	-0.040240
605.000000	-0.039737
604.000000	-0.040053
603.000000	-0.039932
602.000000	-0.040042
601.000000	-0.040266
600.000000	-0.040127
599.000000	-0.040122
598.000000	-0.040120
597.000000	-0.039469
596.000000	-0.040417
595.000000	-0.039983
594.000000	-0.040364
593.000000	-0.040077
592.000000	-0.039483
591.000000	-0.039759
590.000000	-0.040042
589.000000	-0.039785
588.000000	-0.039666
587.000000	-0.039546
586.000000	-0.039390
585.000000	-0.039361
584.000000	-0.039498
583.000000	-0.039356
582.000000	-0.039463
581.000000	-0.039332
580.000000	-0.039238
579.000000	-0.039498
578.000000	-0.039025
577.000000	-0.039273
576.000000	-0.038833
575.000000	-0.038986
574.000000	-0.039349
573.000000	-0.039107
572.000000	-0.039027
571.000000	-0.039053
570.000000	-0.038932
569.000000	-0.038794
568.000000	-0.038991
567.000000	-0.038894
566.000000	-0.038683
565.000000	-0.038657
564.000000	-0.038861
563.000000	-0.038821
562.000000	-0.039073
561.000000	-0.039387
560.000000	-0.038957
559.000000	-0.039546
558.000000	-0.039154
557.000000	-0.038954
556.000000	-0.039259
555.000000	-0.039178
554.000000	-0.038983
553.000000	-0.038838
552.000000	-0.038886
551.000000	-0.039082
550.000000	-0.038957
549.000000	-0.038765
548.000000	-0.038514
547.000000	-0.039483
546.000000	-0.038916
545.000000	-0.038530
544.000000	-0.038365
543.000000	-0.038542
542.000000	-0.038347
541.000000	-0.037876
540.000000	-0.038231
539.000000	-0.038293
538.000000	-0.038276
537.000000	-0.038253
536.000000	-0.038297
535.000000	-0.037544
534.000000	-0.037935
533.000000	-0.036982
532.000000	-0.037370
531.000000	-0.037201
530.000000	-0.037116
529.000000	-0.036820
528.000000	-0.037086
527.000000	-0.036899
526.000000	-0.036863
525.000000	-0.036677
524.000000	-0.036381
523.000000	-0.035984
522.000000	-0.035412
521.000000	-0.036058
520.000000	-0.035593
519.000000	-0.035833
518.000000	-0.035661
517.000000	-0.035131
516.000000	-0.035189
515.000000	-0.035217
514.000000	-0.034728
513.000000	-0.034892
512.000000	-0.034911
511.000000	-0.034691
510.000000	-0.034808
509.000000	-0.034505
508.000000	-0.034223
507.000000	-0.034477
506.000000	-0.034256
505.000000	-0.033944
504.000000	-0.034248
503.000000	-0.034176
502.000000	-0.034306
501.000000	-0.034455
500.000000	-0.034288
499.000000	-0.034233
498.000000	-0.034336
497.000000	-0.034045
496.000000	-0.034061
495.000000	-0.034029
494.000000	-0.033903
493.000000	-0.033895
492.000000	-0.033772
491.000000	-0.033558
490.000000	-0.033465
489.000000	-0.033546
488.000000	-0.033636
487.000000	-0.033219
486.000000	-0.033508
485.000000	-0.033324
484.000000	-0.032922
483.000000	-0.032957
482.000000	-0.032680
481.000000	-0.032383
480.000000	-0.031813
479.000000	-0.031552
478.000000	-0.031307
477.000000	-0.031391
476.000000	-0.031131
475.000000	-0.030806
474.000000	-0.030944
473.000000	-0.030913
472.000000	-0.030481
471.000000	-0.030541
470.000000	-0.030428
469.000000	-0.030115
468.000000	-0.030096
467.000000	-0.029896
466.000000	-0.029909
465.000000	-0.029635
464.000000	-0.029832
463.000000	-0.029799
462.000000	-0.029777
461.000000	-0.029654
460.000000	-0.029468
459.000000	-0.029428
458.000000	-0.029145
457.000000	-0.029031
456.000000	-0.028889
455.000000	-0.028749
454.000000	-0.028410
453.000000	-0.028271
452.000000	-0.027979
451.000000	-0.027656
450.000000	-0.027796
449.000000	-0.027529
448.000000	-0.027109
447.000000	-0.027099
446.000000	-0.026824
445.000000	-0.026655
444.000000	-0.026576
443.000000	-0.026072
442.000000	-0.025807
441.000000	-0.025588
440.000000	-0.025030
439.000000	-0.024957
438.000000	-0.025050
437.000000	-0.024687
436.000000	-0.024420
435.000000	-0.024062
434.000000	-0.023709
433.000000	-0.023522
432.000000	-0.023272
431.000000	-0.022990
430.000000	-0.022866
429.000000	-0.022593
428.000000	-0.022174
427.000000	-0.021877
426.000000	-0.021316
425.000000	-0.021014
424.000000	-0.021070
423.000000	-0.020969
422.000000	-0.020521
421.000000	-0.019940
420.000000	-0.019843
419.000000	-0.019579
418.000000	-0.019490
417.000000	-0.019102
416.000000	-0.018559
415.000000	-0.018279
414.000000	-0.018049
413.000000	-0.017641
412.000000	-0.017395
411.000000	-0.017353
410.000000	-0.016401
409.000000	-0.015845
408.000000	-0.015726
407.000000	-0.015268
406.000000	-0.015088
405.000000	-0.014764
404.000000	-0.014151
403.000000	-0.013442
402.000000	-0.013120
401.000000	-0.012770
400.000000	-0.012513
399.000000	-0.012122
398.000000	-0.011931
397.000000	-0.011547
396.000000	-0.011343
395.000000	-0.011022
394.000000	-0.010594
393.000000	-0.010262
392.000000	-0.009525
391.000000	-0.009525
390.000000	-0.009275
389.000000	-0.008898
388.000000	-0.008393
387.000000	-0.008198
386.000000	-0.007705
385.000000	-0.006970
384.000000	-0.006655
383.000000	-0.006312
382.000000	-0.005543
381.000000	-0.005271
380.000000	-0.005014
379.000000	-0.004520
378.000000	-0.006764
377.000000	-0.007521
376.000000	-0.006179
375.000000	-0.007131
374.000000	-0.006871
373.000000	-0.005225
372.000000	-0.004943
371.000000	-0.004851
370.000000	-0.003836
369.000000	-0.003135
368.000000	-0.001416
367.000000	-0.001339
366.000000	-0.001180
365.000000	-0.000892
364.000000	-0.000253
363.000000	0.000265
362.000000	0.000610
361.000000	0.001085
360.000000	0.000591
359.000000	0.000669
358.000000	0.001961
357.000000	0.001868
356.000000	0.002098
355.000000	0.002653
354.000000	0.003876
353.000000	0.003632
352.000000	0.004729
351.000000	0.004257
350.000000	0.003965
349.000000	0.006484
348.000000	0.007094
347.000000	0.007443
346.000000	0.006476
345.000000	0.008276
344.000000	0.007246
343.000000	0.007929
342.000000	0.009154
341.000000	0.010310
340.000000	0.010122
339.000000	0.009218
338.000000	0.010842
337.000000	0.010053
336.000000	0.010842
335.000000	0.010617
334.000000	0.011935
333.000000	0.011955
332.000000	0.012837
331.000000	0.012109
330.000000	0.014926
329.000000	0.014445
328.000000	0.015642
327.000000	0.016667
326.000000	0.016365
325.000000	0.016247
324.000000	0.017048
323.000000	0.018677
322.000000	0.016549
321.000000	0.014068
320.000000	0.018148
319.000000	0.017311
318.000000	0.018590
317.000000	0.018112
316.000000	0.017740
315.000000	0.017637
314.000000	0.020000
313.000000	0.018737
312.000000	0.020286
311.000000	0.020205
310.000000	0.019884
309.000000	0.020212
308.000000	0.020281
307.000000	0.021362
306.000000	0.021576
305.000000	0.022489
304.000000	0.023391
303.000000	0.023130
302.000000	0.021976
301.000000	0.021893
300.000000	0.021639
