PE UV       SUBTECH     SPECTRUM    ASCII       PEDS        4.00        
   -1
PETIT_18.Sample.Raw.asc
20/12/14
14:20:02.00
20/12/14
14:20:02.00
CNRS
RCC0076_A_D2
300.000000
1
Lambda 850
850L1011221
PerkinElmer UV WinLab 6.0.3.0730 / 1.61.00 Lambda 800

0
0
2
0
0
UV/VIS
1
1
1
RBeamAtt,SBeamAtt,150mm sphere / downward view
0
0
0
0
Fix
 
0
0.2
0
0
0
 
 
 
0
 
0
319.2
0
Front
50
 
S:100 R:100
 
0
0
0
 
0
 
 
 
0
 
 
0
0
0
0
0
 
 
 
 
0
0


#HDR
-1
-1
#GR
nm
A
1.0
0.0
800.000000
-1.000000
501
8
0.056436
-0.014943
#DATA
800.000000	-0.013605
799.000000	-0.012649
798.000000	-0.012642
797.000000	-0.012358
796.000000	-0.012531
795.000000	-0.012798
794.000000	-0.013729
793.000000	-0.013200
792.000000	-0.014023
791.000000	-0.013161
790.000000	-0.013513
789.000000	-0.014943
788.000000	-0.013705
787.000000	-0.013117
786.000000	-0.012549
785.000000	-0.012777
784.000000	-0.012111
783.000000	-0.012786
782.000000	-0.012871
781.000000	-0.013630
780.000000	-0.013072
779.000000	-0.013476
778.000000	-0.012455
777.000000	-0.013757
776.000000	-0.012541
775.000000	-0.012743
774.000000	-0.012089
773.000000	-0.012177
772.000000	-0.012396
771.000000	-0.013468
770.000000	-0.012758
769.000000	-0.014050
768.000000	-0.013477
767.000000	-0.013730
766.000000	-0.012184
765.000000	-0.012443
764.000000	-0.012543
763.000000	-0.013213
762.000000	-0.012402
761.000000	-0.012889
760.000000	-0.013300
759.000000	-0.013406
758.000000	-0.012978
757.000000	-0.013032
756.000000	-0.013466
755.000000	-0.013760
754.000000	-0.014011
753.000000	-0.013126
752.000000	-0.013031
751.000000	-0.013744
750.000000	-0.014134
749.000000	-0.013329
748.000000	-0.013230
747.000000	-0.013764
746.000000	-0.014232
745.000000	-0.013222
744.000000	-0.012393
743.000000	-0.013040
742.000000	-0.013329
741.000000	-0.013587
740.000000	-0.013117
739.000000	-0.012871
738.000000	-0.013018
737.000000	-0.012601
736.000000	-0.012716
735.000000	-0.013118
734.000000	-0.013093
733.000000	-0.013175
732.000000	-0.014061
731.000000	-0.013648
730.000000	-0.013323
729.000000	-0.013489
728.000000	-0.013282
727.000000	-0.013501
726.000000	-0.013637
725.000000	-0.013841
724.000000	-0.013937
723.000000	-0.013931
722.000000	-0.013646
721.000000	-0.013935
720.000000	-0.013394
719.000000	-0.013255
718.000000	-0.013843
717.000000	-0.013584
716.000000	-0.013308
715.000000	-0.013737
714.000000	-0.013229
713.000000	-0.012687
712.000000	-0.012740
711.000000	-0.012467
710.000000	-0.011930
709.000000	-0.012387
708.000000	-0.012068
707.000000	-0.011832
706.000000	-0.011379
705.000000	-0.010858
704.000000	-0.010763
703.000000	-0.010118
702.000000	-0.008838
701.000000	-0.008154
700.000000	-0.007659
699.000000	-0.006487
698.000000	-0.005473
697.000000	-0.004094
696.000000	-0.002162
695.000000	-0.000057
694.000000	0.002030
693.000000	0.004272
692.000000	0.005952
691.000000	0.007948
690.000000	0.010859
689.000000	0.013146
688.000000	0.015016
687.000000	0.016791
686.000000	0.018854
685.000000	0.021061
684.000000	0.022189
683.000000	0.023199
682.000000	0.024205
681.000000	0.024787
680.000000	0.025543
679.000000	0.026659
678.000000	0.027102
677.000000	0.027356
676.000000	0.028210
675.000000	0.028910
674.000000	0.028422
673.000000	0.027869
672.000000	0.027830
671.000000	0.027282
670.000000	0.026411
669.000000	0.025788
668.000000	0.024884
667.000000	0.023698
666.000000	0.022189
665.000000	0.020518
664.000000	0.019072
663.000000	0.017434
662.000000	0.015544
661.000000	0.013584
660.000000	0.011747
659.000000	0.010303
658.000000	0.008809
657.000000	0.007026
656.000000	0.005985
655.000000	0.004821
654.000000	0.003676
653.000000	0.002695
652.000000	0.001535
651.000000	0.001281
650.000000	0.000936
649.000000	0.000478
648.000000	0.000401
647.000000	-0.000249
646.000000	-0.000031
645.000000	0.000322
644.000000	0.000289
643.000000	0.000490
642.000000	0.000759
641.000000	0.001060
640.000000	0.001263
639.000000	0.001332
638.000000	0.001960
637.000000	0.001983
636.000000	0.001795
635.000000	0.002133
634.000000	0.002064
633.000000	0.002101
632.000000	0.002322
631.000000	0.002323
630.000000	0.002111
629.000000	0.002102
628.000000	0.001560
627.000000	0.001906
626.000000	0.001982
625.000000	0.001565
624.000000	0.001526
623.000000	0.001625
622.000000	0.001828
621.000000	0.001114
620.000000	0.000939
619.000000	0.000920
618.000000	0.000709
617.000000	0.000515
616.000000	0.000249
615.000000	-0.000306
614.000000	-0.000647
613.000000	-0.000687
612.000000	-0.000722
611.000000	-0.001120
610.000000	-0.002277
609.000000	-0.002352
608.000000	-0.002473
607.000000	-0.003048
606.000000	-0.003194
605.000000	-0.004045
604.000000	-0.003994
603.000000	-0.004208
602.000000	-0.004176
601.000000	-0.004077
600.000000	-0.004117
599.000000	-0.004102
598.000000	-0.004146
597.000000	-0.004784
596.000000	-0.003473
595.000000	-0.003496
594.000000	-0.002955
593.000000	-0.003405
592.000000	-0.003856
591.000000	-0.003320
590.000000	-0.002867
589.000000	-0.003189
588.000000	-0.003538
587.000000	-0.003413
586.000000	-0.003225
585.000000	-0.003315
584.000000	-0.003331
583.000000	-0.003024
582.000000	-0.003193
581.000000	-0.002842
580.000000	-0.003195
579.000000	-0.003085
578.000000	-0.003480
577.000000	-0.003412
576.000000	-0.003873
575.000000	-0.003456
574.000000	-0.003096
573.000000	-0.003472
572.000000	-0.003409
571.000000	-0.003389
570.000000	-0.003430
569.000000	-0.003519
568.000000	-0.002772
567.000000	-0.003108
566.000000	-0.002975
565.000000	-0.002827
564.000000	-0.002101
563.000000	-0.002179
562.000000	-0.001321
561.000000	-0.001017
560.000000	-0.001357
559.000000	-0.000245
558.000000	-0.000334
557.000000	-0.000450
556.000000	0.000952
555.000000	0.001105
554.000000	0.001322
553.000000	0.001672
552.000000	0.001669
551.000000	0.002785
550.000000	0.003185
549.000000	0.002903
548.000000	0.003471
547.000000	0.005197
546.000000	0.004851
545.000000	0.005145
544.000000	0.005147
543.000000	0.005705
542.000000	0.006224
541.000000	0.005935
540.000000	0.006771
539.000000	0.007098
538.000000	0.007452
537.000000	0.007866
536.000000	0.008463
535.000000	0.008103
534.000000	0.008681
533.000000	0.008279
532.000000	0.008859
531.000000	0.008951
530.000000	0.009474
529.000000	0.009757
528.000000	0.010127
527.000000	0.010381
526.000000	0.010496
525.000000	0.010792
524.000000	0.011078
523.000000	0.011248
522.000000	0.010794
521.000000	0.012154
520.000000	0.012212
519.000000	0.012825
518.000000	0.013277
517.000000	0.013024
516.000000	0.014100
515.000000	0.013972
514.000000	0.014361
513.000000	0.015003
512.000000	0.015710
511.000000	0.016236
510.000000	0.016612
509.000000	0.016748
508.000000	0.017022
507.000000	0.018384
506.000000	0.018210
505.000000	0.018969
504.000000	0.019492
503.000000	0.020325
502.000000	0.020869
501.000000	0.021272
500.000000	0.021968
499.000000	0.022004
498.000000	0.022698
497.000000	0.022796
496.000000	0.023281
495.000000	0.023824
494.000000	0.024069
493.000000	0.023960
492.000000	0.023936
491.000000	0.023924
490.000000	0.024034
489.000000	0.024387
488.000000	0.025107
487.000000	0.024583
486.000000	0.024889
485.000000	0.024797
484.000000	0.024260
483.000000	0.024523
482.000000	0.024611
481.000000	0.024280
480.000000	0.023971
479.000000	0.023742
478.000000	0.024009
477.000000	0.024252
476.000000	0.024926
475.000000	0.025074
474.000000	0.025576
473.000000	0.026032
472.000000	0.026289
471.000000	0.026829
470.000000	0.027317
469.000000	0.027812
468.000000	0.028660
467.000000	0.029230
466.000000	0.029480
465.000000	0.029848
464.000000	0.030773
463.000000	0.031390
462.000000	0.031584
461.000000	0.032164
460.000000	0.032454
459.000000	0.032887
458.000000	0.033146
457.000000	0.033320
456.000000	0.033496
455.000000	0.033995
454.000000	0.034238
453.000000	0.034970
452.000000	0.035269
451.000000	0.035565
450.000000	0.036667
449.000000	0.037406
448.000000	0.037916
447.000000	0.038499
446.000000	0.038947
445.000000	0.039387
444.000000	0.039996
443.000000	0.040427
442.000000	0.041122
441.000000	0.041567
440.000000	0.041531
439.000000	0.042050
438.000000	0.042653
437.000000	0.042513
436.000000	0.042300
435.000000	0.041831
434.000000	0.041271
433.000000	0.041175
432.000000	0.041271
431.000000	0.040989
430.000000	0.040556
429.000000	0.040056
428.000000	0.039875
427.000000	0.039738
426.000000	0.039201
425.000000	0.039233
424.000000	0.039228
423.000000	0.039249
422.000000	0.039199
421.000000	0.038853
420.000000	0.038638
419.000000	0.038201
418.000000	0.038480
417.000000	0.038127
416.000000	0.037737
415.000000	0.037623
414.000000	0.036940
413.000000	0.036589
412.000000	0.036501
411.000000	0.036108
410.000000	0.034915
409.000000	0.034300
408.000000	0.034181
407.000000	0.033428
406.000000	0.032710
405.000000	0.031832
404.000000	0.031129
403.000000	0.030712
402.000000	0.030317
401.000000	0.029532
400.000000	0.029215
399.000000	0.029038
398.000000	0.028869
397.000000	0.028805
396.000000	0.029139
395.000000	0.028596
394.000000	0.028065
393.000000	0.028336
392.000000	0.028015
391.000000	0.027946
390.000000	0.027945
389.000000	0.027781
388.000000	0.027385
387.000000	0.027390
386.000000	0.027012
385.000000	0.025742
384.000000	0.024984
383.000000	0.025366
382.000000	0.024503
381.000000	0.023895
380.000000	0.024840
379.000000	0.023909
378.000000	0.024110
377.000000	0.023078
376.000000	0.020387
375.000000	0.021227
374.000000	0.019472
373.000000	0.019174
372.000000	0.018872
371.000000	0.017994
370.000000	0.018210
369.000000	0.017313
368.000000	0.015174
367.000000	0.013823
366.000000	0.014949
365.000000	0.015923
364.000000	0.015860
363.000000	0.014968
362.000000	0.014165
361.000000	0.013975
360.000000	0.014772
359.000000	0.014590
358.000000	0.014509
357.000000	0.015145
356.000000	0.014783
355.000000	0.015030
354.000000	0.013824
353.000000	0.013137
352.000000	0.015063
351.000000	0.015740
350.000000	0.015348
349.000000	0.013449
348.000000	0.013212
347.000000	0.013455
346.000000	0.015793
345.000000	0.015538
344.000000	0.018821
343.000000	0.017741
342.000000	0.015832
341.000000	0.015708
340.000000	0.016485
339.000000	0.016347
338.000000	0.015054
337.000000	0.016761
336.000000	0.018376
335.000000	0.019341
334.000000	0.017886
333.000000	0.020388
332.000000	0.017746
331.000000	0.018082
330.000000	0.015722
329.000000	0.017999
328.000000	0.019147
327.000000	0.017688
326.000000	0.019917
325.000000	0.018703
324.000000	0.016631
323.000000	0.014910
322.000000	0.021837
321.000000	0.025761
320.000000	0.020469
319.000000	0.023613
318.000000	0.022369
317.000000	0.023760
316.000000	0.025638
315.000000	0.024119
314.000000	0.023968
313.000000	0.028766
312.000000	0.027773
311.000000	0.029718
310.000000	0.031734
309.000000	0.033572
308.000000	0.035076
307.000000	0.036673
306.000000	0.038162
305.000000	0.039436
304.000000	0.042478
303.000000	0.045572
302.000000	0.048401
301.000000	0.052685
300.000000	0.056436
