PE UV       SUBTECH     SPECTRUM    ASCII       PEDS        4.00        
   -1
PETIT_01.Sample.Raw.asc
20/12/14
13:04:25.00
20/12/14
13:04:25.00
CNRS
zeroair1
300.000000
1
Lambda 850
850L1011221
PerkinElmer UV WinLab 6.0.3.0730 / 1.61.00 Lambda 800

0
0
2
0
0
UV/VIS
1
1
1
RBeamAtt,SBeamAtt,150mm sphere / downward view
0
0
0
0
Fix
 
0
0.2
0
0
0
 
 
 
0
 
0
319.2
0
Front
50
 
S:100 R:100
 
0
0
0
 
0
 
 
 
0
 
 
0
0
0
0
0
 
 
 
 
0
0


#HDR
-1
-1
#GR
nm
A
1.0
0.0
800.000000
-1.000000
501
8
0.005408
-0.003267
#DATA
800.000000	-0.001219
799.000000	0.000576
798.000000	-0.000121
797.000000	-0.000677
796.000000	0.000424
795.000000	0.000318
794.000000	-0.000459
793.000000	-0.000352
792.000000	-0.000650
791.000000	0.000291
790.000000	-0.001272
789.000000	-0.000735
788.000000	0.000504
787.000000	-0.000600
786.000000	-0.000325
785.000000	0.000121
784.000000	0.000622
783.000000	-0.000516
782.000000	0.000197
781.000000	-0.000279
780.000000	-0.000337
779.000000	0.000243
778.000000	0.000917
777.000000	0.000487
776.000000	-0.000460
775.000000	0.000166
774.000000	-0.000402
773.000000	0.000529
772.000000	0.000018
771.000000	0.001003
770.000000	0.001030
769.000000	-0.000077
768.000000	0.000184
767.000000	-0.000429
766.000000	0.000481
765.000000	0.000384
764.000000	0.000275
763.000000	0.000245
762.000000	-0.000259
761.000000	0.000061
760.000000	-0.001249
759.000000	0.000063
758.000000	-0.000014
757.000000	-0.000969
756.000000	-0.000765
755.000000	-0.000376
754.000000	-0.000605
753.000000	-0.000886
752.000000	-0.001044
751.000000	-0.000756
750.000000	-0.001130
749.000000	-0.000683
748.000000	-0.000465
747.000000	-0.000309
746.000000	-0.000157
745.000000	-0.000229
744.000000	0.000427
743.000000	0.000148
742.000000	0.000207
741.000000	-0.000328
740.000000	0.000536
739.000000	0.000271
738.000000	0.000012
737.000000	0.000027
736.000000	0.000181
735.000000	0.000290
734.000000	0.000464
733.000000	0.000535
732.000000	-0.000212
731.000000	0.000406
730.000000	-0.000508
729.000000	-0.000568
728.000000	-0.000127
727.000000	-0.000031
726.000000	0.000301
725.000000	-0.000154
724.000000	-0.000098
723.000000	-0.000106
722.000000	-0.000005
721.000000	-0.000453
720.000000	0.000062
719.000000	-0.000029
718.000000	-0.000058
717.000000	0.000148
716.000000	-0.000105
715.000000	-0.000385
714.000000	-0.000323
713.000000	0.000332
712.000000	-0.000196
711.000000	-0.000318
710.000000	-0.000502
709.000000	-0.000749
708.000000	-0.000424
707.000000	-0.000303
706.000000	-0.000053
705.000000	0.000279
704.000000	-0.000334
703.000000	-0.000398
702.000000	-0.000020
701.000000	0.000024
700.000000	-0.000298
699.000000	-0.000506
698.000000	-0.000651
697.000000	-0.000404
696.000000	-0.000228
695.000000	-0.000012
694.000000	-0.000032
693.000000	-0.000167
692.000000	-0.000450
691.000000	-0.000703
690.000000	-0.000337
689.000000	-0.000189
688.000000	-0.000176
687.000000	-0.000107
686.000000	-0.000152
685.000000	-0.000145
684.000000	0.000026
683.000000	0.000224
682.000000	0.000083
681.000000	-0.000132
680.000000	-0.000346
679.000000	-0.000391
678.000000	-0.000126
677.000000	-0.000161
676.000000	-0.000145
675.000000	0.000057
674.000000	-0.000175
673.000000	-0.000209
672.000000	-0.000013
671.000000	-0.000138
670.000000	-0.000425
669.000000	-0.000142
668.000000	0.000207
667.000000	0.000062
666.000000	-0.000328
665.000000	-0.000197
664.000000	0.000106
663.000000	0.000119
662.000000	-0.000172
661.000000	-0.000093
660.000000	0.000158
659.000000	-0.000128
658.000000	-0.000309
657.000000	-0.000171
656.000000	0.000303
655.000000	0.000215
654.000000	0.000018
653.000000	0.000061
652.000000	-0.000156
651.000000	-0.000229
650.000000	-0.000200
649.000000	-0.000172
648.000000	0.000054
647.000000	-0.000191
646.000000	-0.000283
645.000000	-0.000025
644.000000	0.000236
643.000000	0.000315
642.000000	0.000124
641.000000	-0.000101
640.000000	0.000161
639.000000	-0.000005
638.000000	-0.000011
637.000000	0.000052
636.000000	-0.000179
635.000000	0.000271
634.000000	0.000443
633.000000	0.000144
632.000000	-0.000127
631.000000	-0.000370
630.000000	-0.000544
629.000000	-0.000025
628.000000	-0.000668
627.000000	-0.000220
626.000000	-0.000071
625.000000	-0.000260
624.000000	-0.000259
623.000000	-0.000350
622.000000	0.000314
621.000000	-0.000217
620.000000	-0.000374
619.000000	-0.000066
618.000000	-0.000129
617.000000	0.000019
616.000000	-0.000369
615.000000	-0.000104
614.000000	0.000048
613.000000	0.000257
612.000000	0.000171
611.000000	0.000091
610.000000	-0.000629
609.000000	-0.000115
608.000000	0.000012
607.000000	-0.000578
606.000000	-0.000374
605.000000	-0.000985
604.000000	-0.000390
603.000000	0.000002
602.000000	-0.000102
601.000000	0.000216
600.000000	0.000066
599.000000	-0.000031
598.000000	-0.000007
597.000000	-0.000369
596.000000	0.000684
595.000000	0.000361
594.000000	0.000582
593.000000	0.000246
592.000000	-0.000209
591.000000	-0.000040
590.000000	0.000235
589.000000	0.000084
588.000000	-0.000308
587.000000	-0.000069
586.000000	-0.000291
585.000000	-0.000305
584.000000	0.000005
583.000000	-0.000047
582.000000	0.000016
581.000000	-0.000190
580.000000	-0.000291
579.000000	0.000318
578.000000	-0.000362
577.000000	0.000035
576.000000	-0.000253
575.000000	-0.000364
574.000000	0.000312
573.000000	0.000173
572.000000	-0.000089
571.000000	-0.000011
570.000000	-0.000366
569.000000	-0.000220
568.000000	0.000002
567.000000	0.000252
566.000000	-0.000278
565.000000	-0.000200
564.000000	0.000081
563.000000	0.000093
562.000000	0.000081
561.000000	0.000000
560.000000	-0.000292
559.000000	0.000077
558.000000	-0.000238
557.000000	-0.000335
556.000000	-0.000253
555.000000	0.000111
554.000000	-0.000648
553.000000	-0.000245
552.000000	-0.000621
551.000000	0.000130
550.000000	0.000129
549.000000	-0.000221
548.000000	-0.000238
547.000000	0.000581
546.000000	0.000215
545.000000	0.000025
544.000000	-0.000193
543.000000	0.000083
542.000000	-0.000014
541.000000	-0.000395
540.000000	-0.000016
539.000000	-0.000003
538.000000	-0.000091
537.000000	0.000175
536.000000	0.000345
535.000000	-0.000121
534.000000	0.000034
533.000000	-0.000628
532.000000	-0.000065
531.000000	-0.000202
530.000000	0.000019
529.000000	-0.000182
528.000000	-0.000024
527.000000	-0.000082
526.000000	-0.000027
525.000000	0.000348
524.000000	0.000138
523.000000	-0.000259
522.000000	-0.000759
521.000000	-0.000099
520.000000	-0.000516
519.000000	0.000288
518.000000	0.000144
517.000000	-0.000413
516.000000	-0.000297
515.000000	-0.000015
514.000000	-0.000446
513.000000	-0.000214
512.000000	-0.000093
511.000000	-0.000238
510.000000	0.000027
509.000000	-0.000276
508.000000	-0.000863
507.000000	-0.000159
506.000000	-0.000376
505.000000	-0.000363
504.000000	-0.000316
503.000000	-0.000354
502.000000	0.000257
501.000000	0.000107
500.000000	-0.000111
499.000000	0.000171
498.000000	-0.000046
497.000000	-0.000273
496.000000	-0.000272
495.000000	-0.000239
494.000000	-0.000035
493.000000	0.000194
492.000000	-0.000434
491.000000	-0.000356
490.000000	-0.000808
489.000000	-0.000413
488.000000	0.000326
487.000000	-0.000258
486.000000	0.000424
485.000000	0.000086
484.000000	-0.000421
483.000000	-0.000234
482.000000	0.000172
481.000000	-0.000033
480.000000	-0.000641
479.000000	-0.000301
478.000000	-0.000479
477.000000	0.000011
476.000000	0.000060
475.000000	-0.000205
474.000000	-0.000164
473.000000	-0.000040
472.000000	-0.000433
471.000000	-0.000311
470.000000	-0.000314
469.000000	-0.000213
468.000000	-0.000307
467.000000	-0.000406
466.000000	-0.000231
465.000000	-0.000211
464.000000	-0.000032
463.000000	-0.000323
462.000000	-0.000288
461.000000	-0.000058
460.000000	-0.000095
459.000000	-0.000359
458.000000	-0.000404
457.000000	-0.000196
456.000000	-0.000173
455.000000	0.000141
454.000000	-0.000007
453.000000	0.000006
452.000000	-0.000101
451.000000	-0.000789
450.000000	-0.000384
449.000000	-0.000510
448.000000	-0.000597
447.000000	0.000032
446.000000	0.000055
445.000000	-0.000104
444.000000	-0.000041
443.000000	-0.000257
442.000000	-0.000300
441.000000	-0.000429
440.000000	-0.000537
439.000000	-0.000324
438.000000	0.000030
437.000000	0.000077
436.000000	0.000198
435.000000	0.000070
434.000000	0.000196
433.000000	0.000169
432.000000	-0.000049
431.000000	0.000115
430.000000	0.000289
429.000000	0.000084
428.000000	0.000011
427.000000	0.000169
426.000000	-0.000274
425.000000	-0.000562
424.000000	-0.000181
423.000000	0.000269
422.000000	0.000206
421.000000	-0.000144
420.000000	-0.000270
419.000000	-0.000268
418.000000	-0.000114
417.000000	0.000099
416.000000	-0.000156
415.000000	-0.000271
414.000000	0.000215
413.000000	-0.000015
412.000000	-0.000035
411.000000	0.000260
410.000000	-0.000136
409.000000	-0.000439
408.000000	-0.000310
407.000000	-0.000491
406.000000	-0.000255
405.000000	-0.000005
404.000000	-0.000315
403.000000	-0.000679
402.000000	-0.000579
401.000000	-0.000796
400.000000	-0.000299
399.000000	-0.000572
398.000000	-0.000568
397.000000	-0.000232
396.000000	0.000097
395.000000	-0.000105
394.000000	-0.000145
393.000000	0.000144
392.000000	-0.000190
391.000000	-0.000205
390.000000	-0.000119
389.000000	0.000057
388.000000	-0.000364
387.000000	-0.000205
386.000000	-0.000372
385.000000	-0.000380
384.000000	-0.000304
383.000000	-0.000149
382.000000	-0.000108
381.000000	-0.000123
380.000000	-0.000067
379.000000	-0.000356
378.000000	0.001967
377.000000	0.001356
376.000000	-0.001316
375.000000	0.001224
374.000000	0.001221
373.000000	-0.000443
372.000000	-0.000240
371.000000	-0.000167
370.000000	-0.000359
369.000000	-0.000458
368.000000	-0.001528
367.000000	-0.001053
366.000000	-0.000439
365.000000	-0.000167
364.000000	-0.000400
363.000000	-0.001384
362.000000	-0.001500
361.000000	-0.000859
360.000000	0.000734
359.000000	0.002068
358.000000	0.000056
357.000000	-0.000085
356.000000	0.000190
355.000000	0.000480
354.000000	0.000677
353.000000	0.000428
352.000000	0.001134
351.000000	0.001515
350.000000	0.001305
349.000000	-0.001142
348.000000	0.000063
347.000000	-0.000252
346.000000	-0.000150
345.000000	-0.001711
344.000000	-0.001058
343.000000	-0.000787
342.000000	-0.000835
341.000000	-0.000416
340.000000	-0.001074
339.000000	0.000797
338.000000	0.000300
337.000000	0.001050
336.000000	-0.000174
335.000000	0.000460
334.000000	-0.000149
333.000000	0.002442
332.000000	0.000187
331.000000	0.000976
330.000000	0.000711
329.000000	0.000400
328.000000	-0.003267
327.000000	-0.001439
326.000000	-0.001247
325.000000	-0.001026
324.000000	-0.001836
323.000000	-0.002385
322.000000	-0.000018
321.000000	0.005408
320.000000	0.002300
319.000000	0.001521
318.000000	-0.000744
317.000000	-0.000476
316.000000	0.000576
315.000000	0.000343
314.000000	-0.000637
313.000000	0.000264
312.000000	-0.000147
311.000000	-0.000039
310.000000	0.001200
309.000000	0.000312
308.000000	0.000676
307.000000	-0.000820
306.000000	0.000338
305.000000	-0.001098
304.000000	-0.002040
303.000000	-0.000828
302.000000	-0.000687
301.000000	0.000546
300.000000	-0.000011
