PE UV       SUBTECH     SPECTRUM    ASCII       PEDS        4.00        
   -1
PETIT_12.Sample.Raw.asc
20/12/14
13:43:02.00
20/12/14
13:43:02.00
CNRS
RCC2379_A_DM
300.000000
1
Lambda 850
850L1011221
PerkinElmer UV WinLab 6.0.3.0730 / 1.61.00 Lambda 800

0
0
2
0
0
UV/VIS
1
1
1
RBeamAtt,SBeamAtt,150mm sphere / downward view
0
0
0
0
Fix
 
0
0.2
0
0
0
 
 
 
0
 
0
319.2
0
Front
50
 
S:100 R:100
 
0
0
0
 
0
 
 
 
0
 
 
0
0
0
0
0
 
 
 
 
0
0


#HDR
-1
-1
#GR
nm
A
1.0
0.0
800.000000
-1.000000
501
8
0.119743
-0.012106
#DATA
800.000000	-0.010904
799.000000	-0.010578
798.000000	-0.010232
797.000000	-0.011071
796.000000	-0.008808
795.000000	-0.010683
794.000000	-0.011488
793.000000	-0.010915
792.000000	-0.011958
791.000000	-0.010043
790.000000	-0.012106
789.000000	-0.010760
788.000000	-0.010397
787.000000	-0.010251
786.000000	-0.010484
785.000000	-0.010032
784.000000	-0.010372
783.000000	-0.010339
782.000000	-0.010164
781.000000	-0.011364
780.000000	-0.009484
779.000000	-0.010680
778.000000	-0.010306
777.000000	-0.010014
776.000000	-0.011450
775.000000	-0.010074
774.000000	-0.010848
773.000000	-0.010119
772.000000	-0.010180
771.000000	-0.010349
770.000000	-0.010027
769.000000	-0.010047
768.000000	-0.010206
767.000000	-0.010437
766.000000	-0.009937
765.000000	-0.010021
764.000000	-0.010074
763.000000	-0.010408
762.000000	-0.010460
761.000000	-0.010152
760.000000	-0.011812
759.000000	-0.011531
758.000000	-0.010059
757.000000	-0.010732
756.000000	-0.010656
755.000000	-0.011123
754.000000	-0.011963
753.000000	-0.010544
752.000000	-0.010863
751.000000	-0.011368
750.000000	-0.011365
749.000000	-0.010187
748.000000	-0.009574
747.000000	-0.010820
746.000000	-0.011057
745.000000	-0.010123
744.000000	-0.009591
743.000000	-0.010557
742.000000	-0.010533
741.000000	-0.010334
740.000000	-0.010009
739.000000	-0.010925
738.000000	-0.010611
737.000000	-0.010216
736.000000	-0.010542
735.000000	-0.010474
734.000000	-0.010557
733.000000	-0.011171
732.000000	-0.011555
731.000000	-0.011197
730.000000	-0.011532
729.000000	-0.011103
728.000000	-0.010775
727.000000	-0.011091
726.000000	-0.010342
725.000000	-0.011174
724.000000	-0.011500
723.000000	-0.011430
722.000000	-0.010781
721.000000	-0.010543
720.000000	-0.010322
719.000000	-0.010785
718.000000	-0.011865
717.000000	-0.011260
716.000000	-0.010396
715.000000	-0.010976
714.000000	-0.011120
713.000000	-0.010683
712.000000	-0.010388
711.000000	-0.010266
710.000000	-0.010031
709.000000	-0.010237
708.000000	-0.009825
707.000000	-0.009103
706.000000	-0.008444
705.000000	-0.008028
704.000000	-0.007645
703.000000	-0.006831
702.000000	-0.005255
701.000000	-0.004124
700.000000	-0.003124
699.000000	-0.001545
698.000000	0.000240
697.000000	0.002091
696.000000	0.004165
695.000000	0.006571
694.000000	0.009104
693.000000	0.012214
692.000000	0.015324
691.000000	0.018675
690.000000	0.022665
689.000000	0.026416
688.000000	0.030310
687.000000	0.034421
686.000000	0.038424
685.000000	0.042340
684.000000	0.045616
683.000000	0.048714
682.000000	0.051156
681.000000	0.052464
680.000000	0.053691
679.000000	0.054892
678.000000	0.054707
677.000000	0.053954
676.000000	0.053477
675.000000	0.052499
674.000000	0.050864
673.000000	0.049135
672.000000	0.047793
671.000000	0.046267
670.000000	0.043892
669.000000	0.041392
668.000000	0.038851
667.000000	0.035907
666.000000	0.032728
665.000000	0.029693
664.000000	0.026866
663.000000	0.024128
662.000000	0.020912
661.000000	0.017924
660.000000	0.015824
659.000000	0.013588
658.000000	0.011420
657.000000	0.009973
656.000000	0.008832
655.000000	0.007532
654.000000	0.006355
653.000000	0.005927
652.000000	0.005286
651.000000	0.004886
650.000000	0.004428
649.000000	0.004487
648.000000	0.004842
647.000000	0.004537
646.000000	0.004562
645.000000	0.004677
644.000000	0.005077
643.000000	0.005609
642.000000	0.006000
641.000000	0.006248
640.000000	0.006936
639.000000	0.007300
638.000000	0.007520
637.000000	0.007227
636.000000	0.007355
635.000000	0.007800
634.000000	0.008292
633.000000	0.008638
632.000000	0.008357
631.000000	0.008404
630.000000	0.008731
629.000000	0.008367
628.000000	0.008057
627.000000	0.008301
626.000000	0.008344
625.000000	0.008241
624.000000	0.007535
623.000000	0.007647
622.000000	0.007740
621.000000	0.007006
620.000000	0.007001
619.000000	0.006907
618.000000	0.006368
617.000000	0.005889
616.000000	0.005775
615.000000	0.005199
614.000000	0.004767
613.000000	0.004513
612.000000	0.004006
611.000000	0.004077
610.000000	0.002909
609.000000	0.002436
608.000000	0.002254
607.000000	0.001635
606.000000	0.001381
605.000000	0.000528
604.000000	0.000886
603.000000	0.001055
602.000000	0.000310
601.000000	0.000828
600.000000	0.000722
599.000000	0.000887
598.000000	0.000794
597.000000	0.000222
596.000000	0.001094
595.000000	0.000717
594.000000	0.001229
593.000000	0.000868
592.000000	0.000020
591.000000	0.000498
590.000000	0.001217
589.000000	0.000841
588.000000	0.000679
587.000000	0.000470
586.000000	0.000496
585.000000	0.000462
584.000000	0.000562
583.000000	0.000727
582.000000	0.000863
581.000000	0.000758
580.000000	0.001074
579.000000	0.001772
578.000000	0.001657
577.000000	0.002277
576.000000	0.002230
575.000000	0.003193
574.000000	0.004094
573.000000	0.004696
572.000000	0.005376
571.000000	0.006397
570.000000	0.007306
569.000000	0.008163
568.000000	0.009439
567.000000	0.010463
566.000000	0.011196
565.000000	0.012333
564.000000	0.013648
563.000000	0.015013
562.000000	0.016413
561.000000	0.018075
560.000000	0.018669
559.000000	0.021137
558.000000	0.021885
557.000000	0.023404
556.000000	0.024892
555.000000	0.026178
554.000000	0.027434
553.000000	0.028190
552.000000	0.029158
551.000000	0.030274
550.000000	0.030526
549.000000	0.030971
548.000000	0.031159
547.000000	0.032771
546.000000	0.032016
545.000000	0.031717
544.000000	0.031616
543.000000	0.031859
542.000000	0.031409
541.000000	0.030783
540.000000	0.030901
539.000000	0.031110
538.000000	0.030788
537.000000	0.030669
536.000000	0.030792
535.000000	0.029742
534.000000	0.029795
533.000000	0.029193
532.000000	0.029510
531.000000	0.029079
530.000000	0.029021
529.000000	0.029377
528.000000	0.029589
527.000000	0.029595
526.000000	0.030317
525.000000	0.030259
524.000000	0.030672
523.000000	0.031085
522.000000	0.031290
521.000000	0.032752
520.000000	0.033657
519.000000	0.034786
518.000000	0.036173
517.000000	0.036959
516.000000	0.038448
515.000000	0.039874
514.000000	0.041284
513.000000	0.043320
512.000000	0.046086
511.000000	0.047499
510.000000	0.049663
509.000000	0.051286
508.000000	0.053543
507.000000	0.055966
506.000000	0.058692
505.000000	0.060767
504.000000	0.063421
503.000000	0.066210
502.000000	0.068547
501.000000	0.070800
500.000000	0.072558
499.000000	0.074610
498.000000	0.076045
497.000000	0.077330
496.000000	0.078152
495.000000	0.079021
494.000000	0.079457
493.000000	0.080067
492.000000	0.079866
491.000000	0.079746
490.000000	0.079321
489.000000	0.078639
488.000000	0.077973
487.000000	0.076974
486.000000	0.076578
485.000000	0.075546
484.000000	0.074583
483.000000	0.074066
482.000000	0.073515
481.000000	0.073061
480.000000	0.072391
479.000000	0.071993
478.000000	0.071637
477.000000	0.071985
476.000000	0.072451
475.000000	0.072892
474.000000	0.073670
473.000000	0.074366
472.000000	0.074987
471.000000	0.075750
470.000000	0.076140
469.000000	0.077064
468.000000	0.077576
467.000000	0.077799
466.000000	0.078631
465.000000	0.078751
464.000000	0.079381
463.000000	0.079717
462.000000	0.080129
461.000000	0.080326
460.000000	0.080461
459.000000	0.080884
458.000000	0.081069
457.000000	0.082020
456.000000	0.082720
455.000000	0.083834
454.000000	0.085166
453.000000	0.086298
452.000000	0.088238
451.000000	0.090609
450.000000	0.093723
449.000000	0.096808
448.000000	0.099740
447.000000	0.103209
446.000000	0.106236
445.000000	0.109323
444.000000	0.112007
443.000000	0.114035
442.000000	0.115982
441.000000	0.118001
440.000000	0.118866
439.000000	0.119429
438.000000	0.119743
437.000000	0.119526
436.000000	0.118690
435.000000	0.117764
434.000000	0.116287
433.000000	0.115063
432.000000	0.113719
431.000000	0.112124
430.000000	0.110551
429.000000	0.109004
428.000000	0.107945
427.000000	0.106488
426.000000	0.104826
425.000000	0.104287
424.000000	0.103868
423.000000	0.103635
422.000000	0.103459
421.000000	0.102387
420.000000	0.101734
419.000000	0.100892
418.000000	0.100438
417.000000	0.099704
416.000000	0.098414
415.000000	0.097245
414.000000	0.095874
413.000000	0.094470
412.000000	0.092825
411.000000	0.090898
410.000000	0.088657
409.000000	0.086207
408.000000	0.083617
407.000000	0.081717
406.000000	0.080416
405.000000	0.078549
404.000000	0.076380
403.000000	0.073994
402.000000	0.072191
401.000000	0.070983
400.000000	0.070190
399.000000	0.068764
398.000000	0.067819
397.000000	0.067423
396.000000	0.066725
395.000000	0.065918
394.000000	0.065292
393.000000	0.064421
392.000000	0.063099
391.000000	0.062627
390.000000	0.062356
389.000000	0.061941
388.000000	0.061224
387.000000	0.061114
386.000000	0.059747
385.000000	0.057870
384.000000	0.057770
383.000000	0.057235
382.000000	0.056222
381.000000	0.054719
380.000000	0.053753
379.000000	0.052745
378.000000	0.052350
377.000000	0.049998
376.000000	0.045791
375.000000	0.045919
374.000000	0.045818
373.000000	0.043744
372.000000	0.042977
371.000000	0.042081
370.000000	0.038922
369.000000	0.038726
368.000000	0.037815
367.000000	0.037125
366.000000	0.037625
365.000000	0.037599
364.000000	0.036076
363.000000	0.035023
362.000000	0.034027
361.000000	0.033348
360.000000	0.034843
359.000000	0.034207
358.000000	0.034312
357.000000	0.034649
356.000000	0.032891
355.000000	0.033847
354.000000	0.033968
353.000000	0.035550
352.000000	0.033597
351.000000	0.033656
350.000000	0.034893
349.000000	0.033247
348.000000	0.034036
347.000000	0.033317
346.000000	0.036486
345.000000	0.034135
344.000000	0.037501
343.000000	0.037490
342.000000	0.035144
341.000000	0.036769
340.000000	0.037619
339.000000	0.036896
338.000000	0.036824
337.000000	0.038827
336.000000	0.035878
335.000000	0.037541
334.000000	0.036068
333.000000	0.034767
332.000000	0.036481
331.000000	0.038425
330.000000	0.033537
329.000000	0.036665
328.000000	0.034279
327.000000	0.033765
326.000000	0.033710
325.000000	0.031229
324.000000	0.031763
323.000000	0.031641
322.000000	0.034433
321.000000	0.037484
320.000000	0.035195
319.000000	0.036945
318.000000	0.036767
317.000000	0.038909
316.000000	0.039834
315.000000	0.040920
314.000000	0.037933
313.000000	0.042828
312.000000	0.042908
311.000000	0.046877
310.000000	0.048037
309.000000	0.050204
308.000000	0.052909
307.000000	0.055098
306.000000	0.057825
305.000000	0.060879
304.000000	0.066325
303.000000	0.070334
302.000000	0.076401
301.000000	0.081900
300.000000	0.090009
