PE UV       SUBTECH     SPECTRUM    ASCII       PEDS        4.00        
   -1
PETIT_22.Sample.Raw.asc
20/12/14
14:34:22.00
20/12/14
14:34:22.00
CNRS
zeroair2
300.000000
1
Lambda 850
850L1011221
PerkinElmer UV WinLab 6.0.3.0730 / 1.61.00 Lambda 800

0
0
2
0
0
UV/VIS
1
1
1
RBeamAtt,SBeamAtt,150mm sphere / downward view
0
0
0
0
Fix
 
0
0.2
0
0
0
 
 
 
0
 
0
319.2
0
Front
50
 
S:100 R:100
 
0
0
0
 
0
 
 
 
0
 
 
0
0
0
0
0
 
 
 
 
0
0


#HDR
-1
-1
#GR
nm
A
1.0
0.0
800.000000
-1.000000
501
8
0.003868
-0.003533
#DATA
800.000000	0.000082
799.000000	0.001192
798.000000	0.001439
797.000000	-0.000523
796.000000	0.001353
795.000000	0.001556
794.000000	0.000312
793.000000	0.000781
792.000000	-0.000700
791.000000	0.000510
790.000000	0.000357
789.000000	0.000367
788.000000	0.000409
787.000000	0.000514
786.000000	0.000344
785.000000	0.001262
784.000000	0.000790
783.000000	0.001122
782.000000	0.000705
781.000000	-0.000577
780.000000	0.000704
779.000000	0.000399
778.000000	0.000330
777.000000	-0.000041
776.000000	0.000099
775.000000	0.000941
774.000000	0.000644
773.000000	0.001742
772.000000	0.000413
771.000000	0.000166
770.000000	0.001118
769.000000	-0.000177
768.000000	-0.000408
767.000000	0.000433
766.000000	0.000761
765.000000	0.001118
764.000000	0.000643
763.000000	0.000291
762.000000	0.001566
761.000000	0.001369
760.000000	-0.000178
759.000000	0.000420
758.000000	0.000799
757.000000	0.000031
756.000000	-0.000067
755.000000	-0.000194
754.000000	-0.000352
753.000000	-0.000217
752.000000	0.000036
751.000000	0.000064
750.000000	-0.000196
749.000000	-0.000559
748.000000	0.000564
747.000000	-0.000265
746.000000	0.000294
745.000000	0.000114
744.000000	0.000744
743.000000	0.001161
742.000000	0.000751
741.000000	0.000117
740.000000	0.000101
739.000000	0.000569
738.000000	0.000255
737.000000	0.000616
736.000000	0.001204
735.000000	0.000514
734.000000	0.000574
733.000000	0.000683
732.000000	-0.000284
731.000000	-0.000281
730.000000	-0.000388
729.000000	0.000173
728.000000	0.000838
727.000000	0.000644
726.000000	0.000657
725.000000	0.000048
724.000000	0.000625
723.000000	0.000295
722.000000	-0.000173
721.000000	-0.000205
720.000000	0.000263
719.000000	0.000073
718.000000	-0.000705
717.000000	0.000348
716.000000	0.000273
715.000000	-0.000040
714.000000	-0.000018
713.000000	0.000647
712.000000	0.000771
711.000000	0.000710
710.000000	0.000828
709.000000	0.000194
708.000000	-0.000308
707.000000	-0.000282
706.000000	0.000026
705.000000	0.000600
704.000000	0.000184
703.000000	0.000106
702.000000	0.000617
701.000000	0.000269
700.000000	-0.000137
699.000000	0.000216
698.000000	0.000347
697.000000	0.000137
696.000000	-0.000160
695.000000	0.000149
694.000000	0.000483
693.000000	0.000563
692.000000	-0.000075
691.000000	-0.000267
690.000000	0.000247
689.000000	0.000036
688.000000	-0.000090
687.000000	0.000093
686.000000	0.000231
685.000000	0.000460
684.000000	0.000241
683.000000	0.000045
682.000000	-0.000117
681.000000	-0.000170
680.000000	-0.000104
679.000000	-0.000122
678.000000	-0.000002
677.000000	0.000123
676.000000	0.000233
675.000000	0.000146
674.000000	-0.000090
673.000000	-0.000039
672.000000	0.000384
671.000000	0.000702
670.000000	0.000416
669.000000	0.000265
668.000000	0.000366
667.000000	0.000401
666.000000	0.000495
665.000000	0.000463
664.000000	0.000383
663.000000	0.000243
662.000000	0.000291
661.000000	-0.000028
660.000000	-0.000102
659.000000	0.000312
658.000000	0.000378
657.000000	0.000111
656.000000	0.000299
655.000000	0.000232
654.000000	0.000088
653.000000	0.000252
652.000000	0.000099
651.000000	0.000177
650.000000	0.000181
649.000000	0.000126
648.000000	0.000393
647.000000	0.000083
646.000000	-0.000242
645.000000	0.000308
644.000000	0.000321
643.000000	0.000043
642.000000	0.000087
641.000000	-0.000215
640.000000	0.000176
639.000000	0.000204
638.000000	0.000451
637.000000	0.000214
636.000000	-0.000150
635.000000	-0.000094
634.000000	0.000152
633.000000	0.000563
632.000000	0.000410
631.000000	0.000332
630.000000	0.000086
629.000000	0.000177
628.000000	-0.000371
627.000000	0.000306
626.000000	0.000424
625.000000	0.000303
624.000000	0.000395
623.000000	0.000260
622.000000	0.000244
621.000000	-0.000211
620.000000	0.000252
619.000000	0.000080
618.000000	-0.000062
617.000000	-0.000032
616.000000	0.000303
615.000000	0.000259
614.000000	0.000521
613.000000	0.000247
612.000000	0.000170
611.000000	0.000252
610.000000	-0.000405
609.000000	-0.000030
608.000000	0.000341
607.000000	-0.000086
606.000000	0.000229
605.000000	-0.000620
604.000000	-0.000209
603.000000	-0.000175
602.000000	-0.000062
601.000000	0.000212
600.000000	0.000042
599.000000	0.000199
598.000000	0.000257
597.000000	-0.000232
596.000000	0.000369
595.000000	0.000124
594.000000	0.000638
593.000000	0.000352
592.000000	-0.000298
591.000000	-0.000005
590.000000	0.000169
589.000000	-0.000183
588.000000	-0.000040
587.000000	0.000125
586.000000	-0.000113
585.000000	-0.000157
584.000000	0.000130
583.000000	-0.000134
582.000000	0.000014
581.000000	-0.000040
580.000000	-0.000005
579.000000	0.000205
578.000000	-0.000087
577.000000	-0.000084
576.000000	-0.000373
575.000000	-0.000391
574.000000	0.000399
573.000000	0.000046
572.000000	-0.000410
571.000000	0.000184
570.000000	-0.000123
569.000000	-0.000251
568.000000	0.000339
567.000000	0.000035
566.000000	-0.000370
565.000000	0.000115
564.000000	0.000358
563.000000	-0.000289
562.000000	0.000455
561.000000	0.000541
560.000000	-0.000016
559.000000	0.000474
558.000000	0.000290
557.000000	0.000106
556.000000	0.000385
555.000000	0.000134
554.000000	0.000230
553.000000	0.000298
552.000000	0.000048
551.000000	0.000459
550.000000	0.000464
549.000000	0.000067
548.000000	0.000147
547.000000	0.001029
546.000000	0.000610
545.000000	0.000258
544.000000	0.000038
543.000000	0.000333
542.000000	0.000644
541.000000	0.000160
540.000000	0.000208
539.000000	0.000245
538.000000	0.000409
537.000000	0.000500
536.000000	0.000728
535.000000	0.000182
534.000000	0.000420
533.000000	-0.000480
532.000000	-0.000042
531.000000	0.000351
530.000000	0.000030
529.000000	-0.000235
528.000000	0.000502
527.000000	0.000334
526.000000	0.000178
525.000000	0.000340
524.000000	0.000360
523.000000	0.000008
522.000000	-0.000553
521.000000	0.000468
520.000000	0.000126
519.000000	0.000428
518.000000	0.000327
517.000000	0.000321
516.000000	0.000342
515.000000	0.000259
514.000000	-0.000035
513.000000	0.000139
512.000000	0.000240
511.000000	0.000071
510.000000	0.000172
509.000000	-0.000017
508.000000	-0.000240
507.000000	-0.000174
506.000000	0.000030
505.000000	-0.000271
504.000000	0.000406
503.000000	0.000221
502.000000	0.000195
501.000000	0.000158
500.000000	0.000520
499.000000	0.000434
498.000000	0.000289
497.000000	-0.000338
496.000000	0.000268
495.000000	0.000522
494.000000	0.000390
493.000000	0.000138
492.000000	-0.000341
491.000000	-0.000183
490.000000	0.000052
489.000000	0.000090
488.000000	0.000341
487.000000	0.000079
486.000000	0.000523
485.000000	0.000375
484.000000	0.000126
483.000000	0.000547
482.000000	0.000655
481.000000	0.000511
480.000000	0.000237
479.000000	0.000330
478.000000	-0.000225
477.000000	0.000174
476.000000	0.000705
475.000000	0.000224
474.000000	0.000187
473.000000	0.000044
472.000000	-0.000134
471.000000	0.000234
470.000000	0.000200
469.000000	0.000315
468.000000	0.000416
467.000000	0.000131
466.000000	-0.000071
465.000000	-0.000182
464.000000	0.000214
463.000000	0.000216
462.000000	0.000035
461.000000	0.000193
460.000000	-0.000069
459.000000	0.000201
458.000000	0.000096
457.000000	0.000163
456.000000	-0.000156
455.000000	0.000252
454.000000	-0.000006
453.000000	0.000402
452.000000	0.000339
451.000000	0.000005
450.000000	0.000525
449.000000	0.000658
448.000000	0.000138
447.000000	0.000321
446.000000	0.000181
445.000000	-0.000008
444.000000	0.000401
443.000000	0.000256
442.000000	0.000549
441.000000	0.000511
440.000000	-0.000246
439.000000	0.000065
438.000000	0.000417
437.000000	0.000412
436.000000	0.000500
435.000000	0.000455
434.000000	0.000387
433.000000	0.000376
432.000000	0.000446
431.000000	0.000595
430.000000	0.000545
429.000000	0.000639
428.000000	0.000482
427.000000	0.000517
426.000000	0.000489
425.000000	0.000228
424.000000	0.000589
423.000000	0.000696
422.000000	0.000193
421.000000	0.000219
420.000000	0.000381
419.000000	0.000476
418.000000	0.000867
417.000000	0.000530
416.000000	0.000234
415.000000	0.000509
414.000000	0.000800
413.000000	0.000391
412.000000	0.000445
411.000000	0.000870
410.000000	0.000239
409.000000	-0.000174
408.000000	0.000028
407.000000	0.000356
406.000000	0.000624
405.000000	0.000616
404.000000	-0.000067
403.000000	-0.000482
402.000000	-0.000352
401.000000	-0.000688
400.000000	-0.000181
399.000000	-0.000149
398.000000	0.000025
397.000000	0.000274
396.000000	0.000479
395.000000	0.000586
394.000000	0.000249
393.000000	0.000689
392.000000	0.000815
391.000000	0.000382
390.000000	0.000964
389.000000	0.001274
388.000000	0.000853
387.000000	0.001079
386.000000	0.001229
385.000000	0.000949
384.000000	0.000850
383.000000	0.000398
382.000000	0.000120
381.000000	0.000271
380.000000	0.000374
379.000000	0.000369
378.000000	0.000625
377.000000	-0.000273
376.000000	-0.001801
375.000000	0.001535
374.000000	0.001134
373.000000	0.000050
372.000000	0.001335
371.000000	0.000174
370.000000	-0.001071
369.000000	-0.000477
368.000000	-0.002155
367.000000	-0.000447
366.000000	-0.000362
365.000000	-0.001565
364.000000	-0.000645
363.000000	-0.000939
362.000000	-0.000168
361.000000	0.000477
360.000000	0.001540
359.000000	0.000073
358.000000	-0.000723
357.000000	0.001039
356.000000	-0.000025
355.000000	-0.000080
354.000000	-0.000315
353.000000	-0.000373
352.000000	-0.001436
351.000000	0.000762
350.000000	-0.000309
349.000000	-0.000648
348.000000	-0.000423
347.000000	-0.000104
346.000000	0.000748
345.000000	-0.001430
344.000000	0.001668
343.000000	0.000384
342.000000	-0.001905
341.000000	-0.002632
340.000000	-0.001371
339.000000	0.000670
338.000000	0.000131
337.000000	0.001411
336.000000	0.000325
335.000000	0.003673
334.000000	-0.000411
333.000000	-0.000381
332.000000	-0.000388
331.000000	-0.000344
330.000000	-0.003410
329.000000	-0.003533
328.000000	-0.001313
327.000000	-0.001310
326.000000	-0.000658
325.000000	-0.000207
324.000000	-0.000870
323.000000	-0.000703
322.000000	0.000877
321.000000	0.003868
320.000000	-0.000400
319.000000	0.000509
318.000000	-0.001297
317.000000	-0.000990
316.000000	0.000411
315.000000	0.000710
314.000000	-0.000958
313.000000	0.001348
312.000000	-0.001208
311.000000	0.000052
310.000000	0.001022
309.000000	0.000036
308.000000	0.001599
307.000000	0.001245
306.000000	-0.000211
305.000000	-0.001042
304.000000	-0.001197
303.000000	0.000445
302.000000	0.002515
301.000000	-0.000025
300.000000	0.000579
