PE UV       SUBTECH     SPECTRUM    ASCII       PEDS        4.00        
   -1
PETIT_09.Sample.Raw.asc
20/12/14
13:31:50.00
20/12/14
13:31:50.00
CNRS
RCC0100_A_D2
300.000000
1
Lambda 850
850L1011221
PerkinElmer UV WinLab 6.0.3.0730 / 1.61.00 Lambda 800

0
0
2
0
0
UV/VIS
1
1
1
RBeamAtt,SBeamAtt,150mm sphere / downward view
0
0
0
0
Fix
 
0
0.2
0
0
0
 
 
 
0
 
0
319.2
0
Front
50
 
S:100 R:100
 
0
0
0
 
0
 
 
 
0
 
 
0
0
0
0
0
 
 
 
 
0
0


#HDR
-1
-1
#GR
nm
A
1.0
0.0
800.000000
-1.000000
501
8
0.148094
-0.010543
#DATA
800.000000	-0.010070
799.000000	-0.009121
798.000000	-0.009550
797.000000	-0.010082
796.000000	-0.009448
795.000000	-0.009894
794.000000	-0.009484
793.000000	-0.009782
792.000000	-0.010543
791.000000	-0.009810
790.000000	-0.010026
789.000000	-0.009781
788.000000	-0.008920
787.000000	-0.009480
786.000000	-0.008943
785.000000	-0.009257
784.000000	-0.008523
783.000000	-0.009819
782.000000	-0.009557
781.000000	-0.010520
780.000000	-0.009393
779.000000	-0.009784
778.000000	-0.009108
777.000000	-0.009047
776.000000	-0.009945
775.000000	-0.009567
774.000000	-0.009203
773.000000	-0.008746
772.000000	-0.009031
771.000000	-0.008975
770.000000	-0.008658
769.000000	-0.009204
768.000000	-0.009268
767.000000	-0.009961
766.000000	-0.009165
765.000000	-0.008655
764.000000	-0.009305
763.000000	-0.009791
762.000000	-0.009279
761.000000	-0.009060
760.000000	-0.009041
759.000000	-0.009621
758.000000	-0.008798
757.000000	-0.009581
756.000000	-0.009323
755.000000	-0.010050
754.000000	-0.009863
753.000000	-0.009627
752.000000	-0.009515
751.000000	-0.009339
750.000000	-0.009576
749.000000	-0.009673
748.000000	-0.009193
747.000000	-0.008998
746.000000	-0.009305
745.000000	-0.008438
744.000000	-0.008366
743.000000	-0.009017
742.000000	-0.009477
741.000000	-0.009680
740.000000	-0.008550
739.000000	-0.008703
738.000000	-0.009087
737.000000	-0.009248
736.000000	-0.009377
735.000000	-0.009444
734.000000	-0.008686
733.000000	-0.008700
732.000000	-0.009244
731.000000	-0.009488
730.000000	-0.010013
729.000000	-0.010135
728.000000	-0.009429
727.000000	-0.009572
726.000000	-0.009200
725.000000	-0.009581
724.000000	-0.009844
723.000000	-0.009851
722.000000	-0.009644
721.000000	-0.010032
720.000000	-0.009512
719.000000	-0.009674
718.000000	-0.009908
717.000000	-0.009582
716.000000	-0.009715
715.000000	-0.010040
714.000000	-0.009613
713.000000	-0.009156
712.000000	-0.008992
711.000000	-0.009110
710.000000	-0.009058
709.000000	-0.009267
708.000000	-0.009536
707.000000	-0.009320
706.000000	-0.008783
705.000000	-0.008083
704.000000	-0.008065
703.000000	-0.008164
702.000000	-0.007354
701.000000	-0.006691
700.000000	-0.006106
699.000000	-0.005272
698.000000	-0.004504
697.000000	-0.003720
696.000000	-0.002399
695.000000	-0.000548
694.000000	0.001392
693.000000	0.003530
692.000000	0.006123
691.000000	0.008922
690.000000	0.012213
689.000000	0.016169
688.000000	0.020684
687.000000	0.025562
686.000000	0.030428
685.000000	0.035664
684.000000	0.040681
683.000000	0.045596
682.000000	0.050436
681.000000	0.054697
680.000000	0.058595
679.000000	0.062292
678.000000	0.065300
677.000000	0.067306
676.000000	0.068870
675.000000	0.069870
674.000000	0.069190
673.000000	0.067725
672.000000	0.066442
671.000000	0.064172
670.000000	0.061161
669.000000	0.057910
668.000000	0.053980
667.000000	0.049705
666.000000	0.045187
665.000000	0.041077
664.000000	0.036999
663.000000	0.033191
662.000000	0.029451
661.000000	0.026313
660.000000	0.023844
659.000000	0.021031
658.000000	0.019000
657.000000	0.017378
656.000000	0.016170
655.000000	0.014924
654.000000	0.013791
653.000000	0.012896
652.000000	0.012454
651.000000	0.012471
650.000000	0.012183
649.000000	0.012381
648.000000	0.013181
647.000000	0.013196
646.000000	0.013609
645.000000	0.014632
644.000000	0.015346
643.000000	0.015708
642.000000	0.016386
641.000000	0.016808
640.000000	0.017356
639.000000	0.017374
638.000000	0.017372
637.000000	0.017145
636.000000	0.016512
635.000000	0.016581
634.000000	0.016657
633.000000	0.016402
632.000000	0.015914
631.000000	0.015385
630.000000	0.015192
629.000000	0.014624
628.000000	0.013569
627.000000	0.013708
626.000000	0.013782
625.000000	0.013399
624.000000	0.013018
623.000000	0.012866
622.000000	0.013006
621.000000	0.012056
620.000000	0.012153
619.000000	0.012246
618.000000	0.012053
617.000000	0.011861
616.000000	0.011884
615.000000	0.011484
614.000000	0.011752
613.000000	0.011622
612.000000	0.011651
611.000000	0.011969
610.000000	0.011089
609.000000	0.011249
608.000000	0.011471
607.000000	0.011436
606.000000	0.011465
605.000000	0.011122
604.000000	0.012090
603.000000	0.012179
602.000000	0.012538
601.000000	0.013228
600.000000	0.013555
599.000000	0.013943
598.000000	0.014477
597.000000	0.014009
596.000000	0.015107
595.000000	0.015232
594.000000	0.015820
593.000000	0.015182
592.000000	0.014593
591.000000	0.014752
590.000000	0.015041
589.000000	0.014549
588.000000	0.014201
587.000000	0.013875
586.000000	0.012924
585.000000	0.012651
584.000000	0.011896
583.000000	0.011368
582.000000	0.010936
581.000000	0.009934
580.000000	0.009894
579.000000	0.009646
578.000000	0.008783
577.000000	0.008498
576.000000	0.007676
575.000000	0.007506
574.000000	0.007943
573.000000	0.007188
572.000000	0.006902
571.000000	0.006912
570.000000	0.006488
569.000000	0.006410
568.000000	0.006299
567.000000	0.006733
566.000000	0.006458
565.000000	0.006753
564.000000	0.007560
563.000000	0.007802
562.000000	0.008366
561.000000	0.008808
560.000000	0.008869
559.000000	0.010043
558.000000	0.009928
557.000000	0.010515
556.000000	0.011640
555.000000	0.012171
554.000000	0.012898
553.000000	0.013399
552.000000	0.014327
551.000000	0.015666
550.000000	0.016339
549.000000	0.016858
548.000000	0.017567
547.000000	0.019919
546.000000	0.019743
545.000000	0.020775
544.000000	0.021713
543.000000	0.022655
542.000000	0.024212
541.000000	0.024679
540.000000	0.026023
539.000000	0.027109
538.000000	0.028192
537.000000	0.029192
536.000000	0.030800
535.000000	0.031232
534.000000	0.032769
533.000000	0.033199
532.000000	0.034841
531.000000	0.035714
530.000000	0.037172
529.000000	0.038030
528.000000	0.039730
527.000000	0.040865
526.000000	0.041951
525.000000	0.043358
524.000000	0.044190
523.000000	0.044962
522.000000	0.045528
521.000000	0.047780
520.000000	0.048759
519.000000	0.050264
518.000000	0.051315
517.000000	0.051967
516.000000	0.053040
515.000000	0.054465
514.000000	0.055631
513.000000	0.057131
512.000000	0.058403
511.000000	0.059617
510.000000	0.061093
509.000000	0.062703
508.000000	0.063355
507.000000	0.064766
506.000000	0.066683
505.000000	0.068058
504.000000	0.070116
503.000000	0.071469
502.000000	0.073794
501.000000	0.076131
500.000000	0.077898
499.000000	0.080333
498.000000	0.083090
497.000000	0.085518
496.000000	0.087973
495.000000	0.090710
494.000000	0.093231
493.000000	0.096176
492.000000	0.098772
491.000000	0.100849
490.000000	0.103426
489.000000	0.106563
488.000000	0.108963
487.000000	0.110960
486.000000	0.112866
485.000000	0.114738
484.000000	0.116799
483.000000	0.118411
482.000000	0.119785
481.000000	0.121319
480.000000	0.121841
479.000000	0.122837
478.000000	0.123834
477.000000	0.124933
476.000000	0.126100
475.000000	0.126762
474.000000	0.127923
473.000000	0.129158
472.000000	0.129487
471.000000	0.130577
470.000000	0.131072
469.000000	0.131244
468.000000	0.132129
467.000000	0.132837
466.000000	0.133285
465.000000	0.133356
464.000000	0.134215
463.000000	0.134693
462.000000	0.134734
461.000000	0.134874
460.000000	0.134866
459.000000	0.135032
458.000000	0.134718
457.000000	0.134694
456.000000	0.134577
455.000000	0.134646
454.000000	0.134574
453.000000	0.134864
452.000000	0.134927
451.000000	0.135139
450.000000	0.135655
449.000000	0.136344
448.000000	0.136945
447.000000	0.138843
446.000000	0.140069
445.000000	0.141285
444.000000	0.142814
443.000000	0.144089
442.000000	0.145336
441.000000	0.146534
440.000000	0.147136
439.000000	0.148094
438.000000	0.148054
437.000000	0.147855
436.000000	0.147598
435.000000	0.146474
434.000000	0.144947
433.000000	0.143316
432.000000	0.141383
431.000000	0.138912
430.000000	0.137049
429.000000	0.135152
428.000000	0.133039
427.000000	0.131339
426.000000	0.129519
425.000000	0.128303
424.000000	0.127161
423.000000	0.126098
422.000000	0.125341
421.000000	0.124241
420.000000	0.123883
419.000000	0.123144
418.000000	0.122560
417.000000	0.121845
416.000000	0.121043
415.000000	0.120159
414.000000	0.119124
413.000000	0.117821
412.000000	0.116119
411.000000	0.114853
410.000000	0.112540
409.000000	0.110252
408.000000	0.108386
407.000000	0.106278
406.000000	0.104319
405.000000	0.102110
404.000000	0.099634
403.000000	0.097530
402.000000	0.095938
401.000000	0.094203
400.000000	0.092543
399.000000	0.091551
398.000000	0.090598
397.000000	0.089586
396.000000	0.088559
395.000000	0.087181
394.000000	0.086549
393.000000	0.085697
392.000000	0.084714
391.000000	0.083467
390.000000	0.082489
389.000000	0.081967
388.000000	0.080893
387.000000	0.080790
386.000000	0.080010
385.000000	0.078085
384.000000	0.077182
383.000000	0.076427
382.000000	0.074679
381.000000	0.073835
380.000000	0.073244
379.000000	0.072183
378.000000	0.069827
377.000000	0.066956
376.000000	0.065150
375.000000	0.066674
374.000000	0.064791
373.000000	0.061512
372.000000	0.062008
371.000000	0.060483
370.000000	0.058547
369.000000	0.058461
368.000000	0.056925
367.000000	0.054969
366.000000	0.055324
365.000000	0.054657
364.000000	0.053453
363.000000	0.053224
362.000000	0.052911
361.000000	0.051425
360.000000	0.051198
359.000000	0.052237
358.000000	0.050546
357.000000	0.051299
356.000000	0.050169
355.000000	0.049757
354.000000	0.049320
353.000000	0.049665
352.000000	0.049929
351.000000	0.051667
350.000000	0.052681
349.000000	0.049968
348.000000	0.050269
347.000000	0.050357
346.000000	0.050373
345.000000	0.051442
344.000000	0.054554
343.000000	0.055078
342.000000	0.053587
341.000000	0.053710
340.000000	0.054549
339.000000	0.054107
338.000000	0.054210
337.000000	0.057651
336.000000	0.056653
335.000000	0.056845
334.000000	0.055566
333.000000	0.058437
332.000000	0.057524
331.000000	0.058314
330.000000	0.055432
329.000000	0.053672
328.000000	0.054809
327.000000	0.056374
326.000000	0.056793
325.000000	0.058159
324.000000	0.058105
323.000000	0.059230
322.000000	0.059143
321.000000	0.061584
320.000000	0.058330
319.000000	0.063059
318.000000	0.062433
317.000000	0.063807
316.000000	0.066470
315.000000	0.067506
314.000000	0.066766
313.000000	0.069306
312.000000	0.068448
311.000000	0.072047
310.000000	0.074353
309.000000	0.076270
308.000000	0.079015
307.000000	0.081202
306.000000	0.082757
305.000000	0.084522
304.000000	0.088273
303.000000	0.094169
302.000000	0.099431
301.000000	0.105279
300.000000	0.109932
