PE UV       SUBTECH     SPECTRUM    ASCII       PEDS        4.00        
   -1
PETIT_10.Sample.Raw.asc
20/12/14
13:35:18.00
20/12/14
13:35:18.00
CNRS
RCC2379_A_D2
300.000000
1
Lambda 850
850L1011221
PerkinElmer UV WinLab 6.0.3.0730 / 1.61.00 Lambda 800

0
0
2
0
0
UV/VIS
1
1
1
RBeamAtt,SBeamAtt,150mm sphere / downward view
0
0
0
0
Fix
 
0
0.2
0
0
0
 
 
 
0
 
0
319.2
0
Front
50
 
S:100 R:100
 
0
0
0
 
0
 
 
 
0
 
 
0
0
0
0
0
 
 
 
 
0
0


#HDR
-1
-1
#GR
nm
A
1.0
0.0
800.000000
-1.000000
501
8
0.208313
-0.013624
#DATA
800.000000	-0.013144
799.000000	-0.011978
798.000000	-0.012303
797.000000	-0.012489
796.000000	-0.011965
795.000000	-0.011959
794.000000	-0.012760
793.000000	-0.012745
792.000000	-0.012995
791.000000	-0.012207
790.000000	-0.013113
789.000000	-0.013204
788.000000	-0.012507
787.000000	-0.011791
786.000000	-0.012563
785.000000	-0.011843
784.000000	-0.011221
783.000000	-0.012273
782.000000	-0.013624
781.000000	-0.013226
780.000000	-0.012452
779.000000	-0.013275
778.000000	-0.013018
777.000000	-0.012340
776.000000	-0.013581
775.000000	-0.011915
774.000000	-0.012096
773.000000	-0.012005
772.000000	-0.011512
771.000000	-0.012023
770.000000	-0.011763
769.000000	-0.012014
768.000000	-0.012615
767.000000	-0.013071
766.000000	-0.012711
765.000000	-0.011562
764.000000	-0.012297
763.000000	-0.012966
762.000000	-0.012197
761.000000	-0.011493
760.000000	-0.012691
759.000000	-0.012646
758.000000	-0.012468
757.000000	-0.012858
756.000000	-0.012994
755.000000	-0.012861
754.000000	-0.013467
753.000000	-0.012783
752.000000	-0.011952
751.000000	-0.012907
750.000000	-0.013612
749.000000	-0.013201
748.000000	-0.012908
747.000000	-0.012997
746.000000	-0.012363
745.000000	-0.012831
744.000000	-0.012018
743.000000	-0.012456
742.000000	-0.012529
741.000000	-0.012060
740.000000	-0.011868
739.000000	-0.012138
738.000000	-0.012793
737.000000	-0.012147
736.000000	-0.011778
735.000000	-0.012277
734.000000	-0.012121
733.000000	-0.011923
732.000000	-0.012694
731.000000	-0.012747
730.000000	-0.013323
729.000000	-0.012639
728.000000	-0.012406
727.000000	-0.012680
726.000000	-0.012738
725.000000	-0.013203
724.000000	-0.012441
723.000000	-0.012740
722.000000	-0.012320
721.000000	-0.012313
720.000000	-0.012040
719.000000	-0.012198
718.000000	-0.012893
717.000000	-0.012234
716.000000	-0.012233
715.000000	-0.012365
714.000000	-0.011660
713.000000	-0.011033
712.000000	-0.011216
711.000000	-0.011196
710.000000	-0.010451
709.000000	-0.010345
708.000000	-0.010366
707.000000	-0.009473
706.000000	-0.008685
705.000000	-0.008022
704.000000	-0.007855
703.000000	-0.006231
702.000000	-0.004518
701.000000	-0.003788
700.000000	-0.002195
699.000000	-0.000196
698.000000	0.001430
697.000000	0.003411
696.000000	0.006471
695.000000	0.009857
694.000000	0.012775
693.000000	0.016186
692.000000	0.020117
691.000000	0.023988
690.000000	0.028351
689.000000	0.032787
688.000000	0.036642
687.000000	0.041144
686.000000	0.045797
685.000000	0.049681
684.000000	0.053495
683.000000	0.056701
682.000000	0.059261
681.000000	0.060973
680.000000	0.061847
679.000000	0.062293
678.000000	0.062308
677.000000	0.061402
676.000000	0.060399
675.000000	0.059497
674.000000	0.057946
673.000000	0.056468
672.000000	0.055184
671.000000	0.053189
670.000000	0.050740
669.000000	0.048586
668.000000	0.045834
667.000000	0.042985
666.000000	0.039973
665.000000	0.036756
664.000000	0.033745
663.000000	0.030772
662.000000	0.027734
661.000000	0.024947
660.000000	0.022279
659.000000	0.019919
658.000000	0.017994
657.000000	0.016444
656.000000	0.015401
655.000000	0.014051
654.000000	0.012759
653.000000	0.011956
652.000000	0.011235
651.000000	0.010988
650.000000	0.010895
649.000000	0.010496
648.000000	0.010782
647.000000	0.010315
646.000000	0.010226
645.000000	0.010543
644.000000	0.010906
643.000000	0.011137
642.000000	0.011388
641.000000	0.011761
640.000000	0.011917
639.000000	0.012138
638.000000	0.012658
637.000000	0.012993
636.000000	0.012712
635.000000	0.012945
634.000000	0.013024
633.000000	0.013119
632.000000	0.013309
631.000000	0.013452
630.000000	0.013329
629.000000	0.013224
628.000000	0.012823
627.000000	0.013451
626.000000	0.013443
625.000000	0.013066
624.000000	0.012816
623.000000	0.012820
622.000000	0.012648
621.000000	0.011660
620.000000	0.011775
619.000000	0.011607
618.000000	0.011069
617.000000	0.010619
616.000000	0.010321
615.000000	0.009899
614.000000	0.009709
613.000000	0.009190
612.000000	0.008367
611.000000	0.008213
610.000000	0.007121
609.000000	0.007349
608.000000	0.006988
607.000000	0.006216
606.000000	0.005878
605.000000	0.005004
604.000000	0.005331
603.000000	0.004668
602.000000	0.004935
601.000000	0.005155
600.000000	0.004820
599.000000	0.005220
598.000000	0.004938
597.000000	0.004507
596.000000	0.005382
595.000000	0.005009
594.000000	0.005529
593.000000	0.005360
592.000000	0.005032
591.000000	0.005368
590.000000	0.005535
589.000000	0.005142
588.000000	0.005273
587.000000	0.005267
586.000000	0.005223
585.000000	0.005289
584.000000	0.004979
583.000000	0.005089
582.000000	0.005479
581.000000	0.005571
580.000000	0.005945
579.000000	0.006050
578.000000	0.005760
577.000000	0.007157
576.000000	0.007026
575.000000	0.007921
574.000000	0.009167
573.000000	0.009737
572.000000	0.010571
571.000000	0.011446
570.000000	0.012060
569.000000	0.012846
568.000000	0.013774
567.000000	0.014628
566.000000	0.014786
565.000000	0.015339
564.000000	0.016369
563.000000	0.016846
562.000000	0.017733
561.000000	0.018513
560.000000	0.018167
559.000000	0.019286
558.000000	0.019240
557.000000	0.019540
556.000000	0.020097
555.000000	0.020496
554.000000	0.020433
553.000000	0.020978
552.000000	0.021374
551.000000	0.022035
550.000000	0.022154
549.000000	0.022291
548.000000	0.022618
547.000000	0.023730
546.000000	0.023607
545.000000	0.023628
544.000000	0.023879
543.000000	0.024248
542.000000	0.024334
541.000000	0.024568
540.000000	0.025519
539.000000	0.025711
538.000000	0.025997
537.000000	0.026641
536.000000	0.027355
535.000000	0.027081
534.000000	0.027888
533.000000	0.027763
532.000000	0.028847
531.000000	0.029428
530.000000	0.029795
529.000000	0.030383
528.000000	0.031843
527.000000	0.032515
526.000000	0.033748
525.000000	0.034870
524.000000	0.036130
523.000000	0.037321
522.000000	0.038183
521.000000	0.040697
520.000000	0.042308
519.000000	0.044547
518.000000	0.046639
517.000000	0.048359
516.000000	0.050344
515.000000	0.053129
514.000000	0.055004
513.000000	0.057782
512.000000	0.060803
511.000000	0.063089
510.000000	0.066141
509.000000	0.068703
508.000000	0.071269
507.000000	0.075018
506.000000	0.077809
505.000000	0.080764
504.000000	0.084238
503.000000	0.087012
502.000000	0.090345
501.000000	0.093285
500.000000	0.095735
499.000000	0.098207
498.000000	0.100295
497.000000	0.102607
496.000000	0.103832
495.000000	0.105556
494.000000	0.106537
493.000000	0.106971
492.000000	0.107465
491.000000	0.107678
490.000000	0.107885
489.000000	0.108026
488.000000	0.108132
487.000000	0.107587
486.000000	0.107791
485.000000	0.107796
484.000000	0.107641
483.000000	0.107715
482.000000	0.107530
481.000000	0.107601
480.000000	0.107396
479.000000	0.107331
478.000000	0.108279
477.000000	0.109299
476.000000	0.110032
475.000000	0.110588
474.000000	0.111784
473.000000	0.112962
472.000000	0.113737
471.000000	0.115019
470.000000	0.116561
469.000000	0.117673
468.000000	0.118901
467.000000	0.119705
466.000000	0.121138
465.000000	0.122362
464.000000	0.123364
463.000000	0.124232
462.000000	0.125175
461.000000	0.126046
460.000000	0.126455
459.000000	0.127403
458.000000	0.128143
457.000000	0.128867
456.000000	0.129757
455.000000	0.131208
454.000000	0.132842
453.000000	0.134828
452.000000	0.136625
451.000000	0.138847
450.000000	0.141586
449.000000	0.144218
448.000000	0.146905
447.000000	0.149817
446.000000	0.152769
445.000000	0.156221
444.000000	0.159114
443.000000	0.161215
442.000000	0.163144
441.000000	0.164872
440.000000	0.165712
439.000000	0.166766
438.000000	0.167534
437.000000	0.167202
436.000000	0.166800
435.000000	0.166785
434.000000	0.166354
433.000000	0.165204
432.000000	0.164269
431.000000	0.163751
430.000000	0.163231
429.000000	0.162297
428.000000	0.161382
427.000000	0.160951
426.000000	0.160182
425.000000	0.159671
424.000000	0.159821
423.000000	0.159893
422.000000	0.160126
421.000000	0.160296
420.000000	0.160338
419.000000	0.160520
418.000000	0.160571
417.000000	0.160367
416.000000	0.160484
415.000000	0.160286
414.000000	0.160225
413.000000	0.159455
412.000000	0.158975
411.000000	0.159520
410.000000	0.158602
409.000000	0.157670
408.000000	0.157389
407.000000	0.156957
406.000000	0.157027
405.000000	0.157192
404.000000	0.157042
403.000000	0.156692
402.000000	0.157099
401.000000	0.157852
400.000000	0.158363
399.000000	0.159256
398.000000	0.160419
397.000000	0.160520
396.000000	0.161691
395.000000	0.163416
394.000000	0.164754
393.000000	0.165370
392.000000	0.165288
391.000000	0.166384
390.000000	0.167743
389.000000	0.167797
388.000000	0.167842
387.000000	0.168253
386.000000	0.167569
385.000000	0.167128
384.000000	0.166381
383.000000	0.165950
382.000000	0.164382
381.000000	0.163534
380.000000	0.162686
379.000000	0.160950
378.000000	0.156864
377.000000	0.152047
376.000000	0.148620
375.000000	0.150182
374.000000	0.147297
373.000000	0.144333
372.000000	0.144113
371.000000	0.142105
370.000000	0.139789
369.000000	0.138770
368.000000	0.135400
367.000000	0.134716
366.000000	0.133707
365.000000	0.133005
364.000000	0.132527
363.000000	0.130896
362.000000	0.132149
361.000000	0.131744
360.000000	0.132174
359.000000	0.131959
358.000000	0.131213
357.000000	0.132760
356.000000	0.132713
355.000000	0.131729
354.000000	0.133656
353.000000	0.133698
352.000000	0.133503
351.000000	0.133660
350.000000	0.136762
349.000000	0.133750
348.000000	0.134589
347.000000	0.136486
346.000000	0.136913
345.000000	0.138071
344.000000	0.139350
343.000000	0.139680
342.000000	0.141386
341.000000	0.140940
340.000000	0.141948
339.000000	0.143434
338.000000	0.142452
337.000000	0.145515
336.000000	0.146445
335.000000	0.146297
334.000000	0.145559
333.000000	0.145318
332.000000	0.145659
331.000000	0.148369
330.000000	0.147998
329.000000	0.149997
328.000000	0.149529
327.000000	0.148431
326.000000	0.149567
325.000000	0.151467
324.000000	0.149946
323.000000	0.151485
322.000000	0.154424
321.000000	0.162049
320.000000	0.156999
319.000000	0.159383
318.000000	0.159674
317.000000	0.161550
316.000000	0.162553
315.000000	0.165279
314.000000	0.165583
313.000000	0.170049
312.000000	0.171149
311.000000	0.172364
310.000000	0.175635
309.000000	0.176704
308.000000	0.180431
307.000000	0.180446
306.000000	0.184916
305.000000	0.187378
304.000000	0.190936
303.000000	0.192801
302.000000	0.198687
301.000000	0.202495
300.000000	0.208313
