PE UV       SUBTECH     SPECTRUM    ASCII       PEDS        4.00        
   -1
PETIT_21.Sample.Raw.asc
20/12/14
14:30:43.00
20/12/14
14:30:43.00
CNRS
Blanc04
300.000000
1
Lambda 850
850L1011221
PerkinElmer UV WinLab 6.0.3.0730 / 1.61.00 Lambda 800

0
0
2
0
0
UV/VIS
1
1
1
RBeamAtt,SBeamAtt,150mm sphere / downward view
0
0
0
0
Fix
 
0
0.2
0
0
0
 
 
 
0
 
0
319.2
0
Front
50
 
S:100 R:100
 
0
0
0
 
0
 
 
 
0
 
 
0
0
0
0
0
 
 
 
 
0
0


#HDR
-1
-1
#GR
nm
A
1.0
0.0
800.000000
-1.000000
501
8
0.012903
-0.020127
#DATA
800.000000	-0.011827
799.000000	-0.011663
798.000000	-0.012250
797.000000	-0.012728
796.000000	-0.012036
795.000000	-0.011921
794.000000	-0.013509
793.000000	-0.012575
792.000000	-0.013256
791.000000	-0.012286
790.000000	-0.013389
789.000000	-0.012682
788.000000	-0.012635
787.000000	-0.012426
786.000000	-0.011836
785.000000	-0.011464
784.000000	-0.011651
783.000000	-0.011859
782.000000	-0.012151
781.000000	-0.012852
780.000000	-0.011738
779.000000	-0.013529
778.000000	-0.011940
777.000000	-0.012544
776.000000	-0.013395
775.000000	-0.012453
774.000000	-0.011939
773.000000	-0.010877
772.000000	-0.011836
771.000000	-0.012370
770.000000	-0.011260
769.000000	-0.012304
768.000000	-0.012886
767.000000	-0.013198
766.000000	-0.012717
765.000000	-0.011581
764.000000	-0.011572
763.000000	-0.011994
762.000000	-0.012197
761.000000	-0.011698
760.000000	-0.012970
759.000000	-0.012507
758.000000	-0.011731
757.000000	-0.012120
756.000000	-0.012964
755.000000	-0.013276
754.000000	-0.013760
753.000000	-0.012454
752.000000	-0.012570
751.000000	-0.013107
750.000000	-0.013060
749.000000	-0.012896
748.000000	-0.012250
747.000000	-0.012803
746.000000	-0.012195
745.000000	-0.012414
744.000000	-0.011766
743.000000	-0.012513
742.000000	-0.012517
741.000000	-0.012679
740.000000	-0.011643
739.000000	-0.011655
738.000000	-0.012107
737.000000	-0.012441
736.000000	-0.012284
735.000000	-0.012476
734.000000	-0.012747
733.000000	-0.012424
732.000000	-0.013062
731.000000	-0.013102
730.000000	-0.012902
729.000000	-0.013479
728.000000	-0.012709
727.000000	-0.013010
726.000000	-0.012518
725.000000	-0.013748
724.000000	-0.013495
723.000000	-0.013535
722.000000	-0.013274
721.000000	-0.014002
720.000000	-0.013509
719.000000	-0.013492
718.000000	-0.013980
717.000000	-0.013686
716.000000	-0.013528
715.000000	-0.013371
714.000000	-0.013365
713.000000	-0.013053
712.000000	-0.013079
711.000000	-0.013126
710.000000	-0.013181
709.000000	-0.013727
708.000000	-0.014044
707.000000	-0.013980
706.000000	-0.013383
705.000000	-0.013230
704.000000	-0.013777
703.000000	-0.013883
702.000000	-0.013395
701.000000	-0.013676
700.000000	-0.013967
699.000000	-0.013597
698.000000	-0.013637
697.000000	-0.013820
696.000000	-0.013402
695.000000	-0.013341
694.000000	-0.013771
693.000000	-0.013519
692.000000	-0.013314
691.000000	-0.014031
690.000000	-0.014148
689.000000	-0.014061
688.000000	-0.013986
687.000000	-0.013863
686.000000	-0.013537
685.000000	-0.013211
684.000000	-0.013172
683.000000	-0.013164
682.000000	-0.013559
681.000000	-0.014038
680.000000	-0.013774
679.000000	-0.013264
678.000000	-0.013248
677.000000	-0.013183
676.000000	-0.013276
675.000000	-0.013008
674.000000	-0.013232
673.000000	-0.013789
672.000000	-0.013411
671.000000	-0.013271
670.000000	-0.013394
669.000000	-0.013497
668.000000	-0.013584
667.000000	-0.013605
666.000000	-0.013491
665.000000	-0.013322
664.000000	-0.013301
663.000000	-0.013096
662.000000	-0.013267
661.000000	-0.013538
660.000000	-0.013607
659.000000	-0.013568
658.000000	-0.013527
657.000000	-0.013673
656.000000	-0.013309
655.000000	-0.013495
654.000000	-0.013661
653.000000	-0.013744
652.000000	-0.013906
651.000000	-0.013548
650.000000	-0.013467
649.000000	-0.013584
648.000000	-0.013598
647.000000	-0.013627
646.000000	-0.013347
645.000000	-0.013725
644.000000	-0.013614
643.000000	-0.013521
642.000000	-0.013374
641.000000	-0.013540
640.000000	-0.013545
639.000000	-0.013450
638.000000	-0.013512
637.000000	-0.013407
636.000000	-0.013654
635.000000	-0.013346
634.000000	-0.013532
633.000000	-0.013402
632.000000	-0.013288
631.000000	-0.013512
630.000000	-0.013786
629.000000	-0.013769
628.000000	-0.013902
627.000000	-0.013473
626.000000	-0.013452
625.000000	-0.013598
624.000000	-0.013539
623.000000	-0.013927
622.000000	-0.013481
621.000000	-0.014059
620.000000	-0.013768
619.000000	-0.013687
618.000000	-0.013932
617.000000	-0.013764
616.000000	-0.013913
615.000000	-0.013777
614.000000	-0.013523
613.000000	-0.013304
612.000000	-0.013647
611.000000	-0.013570
610.000000	-0.014496
609.000000	-0.013804
608.000000	-0.013614
607.000000	-0.014129
606.000000	-0.013848
605.000000	-0.014426
604.000000	-0.013943
603.000000	-0.013940
602.000000	-0.013928
601.000000	-0.013554
600.000000	-0.013826
599.000000	-0.014049
598.000000	-0.013957
597.000000	-0.014378
596.000000	-0.013389
595.000000	-0.013971
594.000000	-0.013550
593.000000	-0.013607
592.000000	-0.014149
591.000000	-0.013962
590.000000	-0.013557
589.000000	-0.013850
588.000000	-0.013986
587.000000	-0.014021
586.000000	-0.014054
585.000000	-0.014114
584.000000	-0.014237
583.000000	-0.013881
582.000000	-0.014014
581.000000	-0.014133
580.000000	-0.013929
579.000000	-0.013374
578.000000	-0.014217
577.000000	-0.013809
576.000000	-0.014189
575.000000	-0.014060
574.000000	-0.013304
573.000000	-0.013819
572.000000	-0.013812
571.000000	-0.013820
570.000000	-0.013882
569.000000	-0.013831
568.000000	-0.013520
567.000000	-0.013675
566.000000	-0.013866
565.000000	-0.013969
564.000000	-0.013417
563.000000	-0.013531
562.000000	-0.013316
561.000000	-0.012639
560.000000	-0.013535
559.000000	-0.013007
558.000000	-0.013537
557.000000	-0.013613
556.000000	-0.013141
555.000000	-0.013367
554.000000	-0.012873
553.000000	-0.013006
552.000000	-0.013144
551.000000	-0.013229
550.000000	-0.013371
549.000000	-0.013052
548.000000	-0.013245
547.000000	-0.011682
546.000000	-0.012423
545.000000	-0.012903
544.000000	-0.013395
543.000000	-0.013463
542.000000	-0.013646
541.000000	-0.013487
540.000000	-0.012966
539.000000	-0.012621
538.000000	-0.012715
537.000000	-0.013277
536.000000	-0.012015
535.000000	-0.013206
534.000000	-0.012870
533.000000	-0.014363
532.000000	-0.013863
531.000000	-0.013047
530.000000	-0.013123
529.000000	-0.013386
528.000000	-0.012951
527.000000	-0.013134
526.000000	-0.012983
525.000000	-0.012976
524.000000	-0.013312
523.000000	-0.013430
522.000000	-0.013881
521.000000	-0.013190
520.000000	-0.013608
519.000000	-0.013264
518.000000	-0.013209
517.000000	-0.013359
516.000000	-0.013508
515.000000	-0.013311
514.000000	-0.013305
513.000000	-0.013403
512.000000	-0.013183
511.000000	-0.013171
510.000000	-0.013205
509.000000	-0.013519
508.000000	-0.013676
507.000000	-0.012788
506.000000	-0.013140
505.000000	-0.013566
504.000000	-0.013233
503.000000	-0.013432
502.000000	-0.012856
501.000000	-0.012878
500.000000	-0.012527
499.000000	-0.012807
498.000000	-0.013060
497.000000	-0.012907
496.000000	-0.012518
495.000000	-0.012749
494.000000	-0.012698
493.000000	-0.013131
492.000000	-0.012956
491.000000	-0.012806
490.000000	-0.012685
489.000000	-0.012691
488.000000	-0.012231
487.000000	-0.012794
486.000000	-0.012595
485.000000	-0.012422
484.000000	-0.012740
483.000000	-0.012535
482.000000	-0.012731
481.000000	-0.012547
480.000000	-0.012957
479.000000	-0.013245
478.000000	-0.013463
477.000000	-0.013103
476.000000	-0.013267
475.000000	-0.013411
474.000000	-0.012892
473.000000	-0.012765
472.000000	-0.013130
471.000000	-0.013386
470.000000	-0.013438
469.000000	-0.013457
468.000000	-0.013260
467.000000	-0.013139
466.000000	-0.013348
465.000000	-0.013615
464.000000	-0.013280
463.000000	-0.013227
462.000000	-0.013544
461.000000	-0.013614
460.000000	-0.013149
459.000000	-0.013366
458.000000	-0.013727
457.000000	-0.013190
456.000000	-0.013384
455.000000	-0.013402
454.000000	-0.013393
453.000000	-0.013384
452.000000	-0.013348
451.000000	-0.013694
450.000000	-0.013423
449.000000	-0.013577
448.000000	-0.013646
447.000000	-0.013575
446.000000	-0.013388
445.000000	-0.013236
444.000000	-0.013133
443.000000	-0.013426
442.000000	-0.013283
441.000000	-0.013073
440.000000	-0.013416
439.000000	-0.013230
438.000000	-0.013066
437.000000	-0.013201
436.000000	-0.013040
435.000000	-0.013098
434.000000	-0.012982
433.000000	-0.013311
432.000000	-0.013664
431.000000	-0.013685
430.000000	-0.013480
429.000000	-0.013407
428.000000	-0.013294
427.000000	-0.013555
426.000000	-0.014027
425.000000	-0.014083
424.000000	-0.013677
423.000000	-0.013686
422.000000	-0.013761
421.000000	-0.013662
420.000000	-0.013847
419.000000	-0.013979
418.000000	-0.013557
417.000000	-0.013867
416.000000	-0.014203
415.000000	-0.014034
414.000000	-0.014080
413.000000	-0.014311
412.000000	-0.014205
411.000000	-0.014026
410.000000	-0.014382
409.000000	-0.014743
408.000000	-0.014778
407.000000	-0.014724
406.000000	-0.014418
405.000000	-0.014347
404.000000	-0.014660
403.000000	-0.015313
402.000000	-0.015249
401.000000	-0.014944
400.000000	-0.014907
399.000000	-0.014986
398.000000	-0.014898
397.000000	-0.015036
396.000000	-0.014732
395.000000	-0.014977
394.000000	-0.014675
393.000000	-0.014150
392.000000	-0.014669
391.000000	-0.014659
390.000000	-0.015086
389.000000	-0.015262
388.000000	-0.014595
387.000000	-0.014462
386.000000	-0.015086
385.000000	-0.015962
384.000000	-0.015487
383.000000	-0.014759
382.000000	-0.015313
381.000000	-0.015647
380.000000	-0.015435
379.000000	-0.015288
378.000000	-0.014246
377.000000	-0.014930
376.000000	-0.016081
375.000000	-0.015626
374.000000	-0.013832
373.000000	-0.014256
372.000000	-0.014616
371.000000	-0.014971
370.000000	-0.015571
369.000000	-0.016357
368.000000	-0.018195
367.000000	-0.017368
366.000000	-0.016560
365.000000	-0.017179
364.000000	-0.017051
363.000000	-0.018306
362.000000	-0.017876
361.000000	-0.018264
360.000000	-0.017084
359.000000	-0.015333
358.000000	-0.016421
357.000000	-0.016956
356.000000	-0.018120
355.000000	-0.017341
354.000000	-0.016676
353.000000	-0.016099
352.000000	-0.017212
351.000000	-0.017046
350.000000	-0.015175
349.000000	-0.019392
348.000000	-0.018982
347.000000	-0.019789
346.000000	-0.017405
345.000000	-0.020127
344.000000	-0.016784
343.000000	-0.017661
342.000000	-0.019640
341.000000	-0.019573
340.000000	-0.018392
339.000000	-0.017656
338.000000	-0.017697
337.000000	-0.015877
336.000000	-0.017552
335.000000	-0.016447
334.000000	-0.018361
333.000000	-0.018051
332.000000	-0.017612
331.000000	-0.014970
330.000000	-0.017595
329.000000	-0.018964
328.000000	-0.019885
327.000000	-0.017523
326.000000	-0.016882
325.000000	-0.014410
324.000000	-0.018644
323.000000	-0.016424
322.000000	-0.014778
321.000000	-0.011840
320.000000	-0.011549
319.000000	-0.015196
318.000000	-0.014506
317.000000	-0.012143
316.000000	-0.011208
315.000000	-0.010817
314.000000	-0.011424
313.000000	-0.008450
312.000000	-0.007173
311.000000	-0.006114
310.000000	-0.004710
309.000000	-0.002564
308.000000	-0.002141
307.000000	-0.002183
306.000000	0.000478
305.000000	0.001155
304.000000	0.002654
303.000000	0.004967
302.000000	0.007951
301.000000	0.009851
300.000000	0.012903
