PE UV       SUBTECH     SPECTRUM    ASCII       PEDS        4.00        
   -1
PETIT_20.Sample.Raw.asc
20/12/14
14:27:18.00
20/12/14
14:27:18.00
CNRS
RCC3006_A_D2
300.000000
1
Lambda 850
850L1011221
PerkinElmer UV WinLab 6.0.3.0730 / 1.61.00 Lambda 800

0
0
2
0
0
UV/VIS
1
1
1
RBeamAtt,SBeamAtt,150mm sphere / downward view
0
0
0
0
Fix
 
0
0.2
0
0
0
 
 
 
0
 
0
319.2
0
Front
50
 
S:100 R:100
 
0
0
0
 
0
 
 
 
0
 
 
0
0
0
0
0
 
 
 
 
0
0


#HDR
-1
-1
#GR
nm
A
1.0
0.0
800.000000
-1.000000
501
8
0.161114
-0.013575
#DATA
800.000000	-0.012975
799.000000	-0.011214
798.000000	-0.012804
797.000000	-0.012480
796.000000	-0.012760
795.000000	-0.011691
794.000000	-0.012993
793.000000	-0.012492
792.000000	-0.012129
791.000000	-0.012369
790.000000	-0.012310
789.000000	-0.012341
788.000000	-0.011985
787.000000	-0.012409
786.000000	-0.012403
785.000000	-0.012098
784.000000	-0.012904
783.000000	-0.011586
782.000000	-0.013291
781.000000	-0.012856
780.000000	-0.011385
779.000000	-0.013575
778.000000	-0.012809
777.000000	-0.011623
776.000000	-0.012344
775.000000	-0.012768
774.000000	-0.012430
773.000000	-0.011454
772.000000	-0.012114
771.000000	-0.012175
770.000000	-0.011893
769.000000	-0.012336
768.000000	-0.013023
767.000000	-0.013072
766.000000	-0.011311
765.000000	-0.011533
764.000000	-0.012023
763.000000	-0.012746
762.000000	-0.012735
761.000000	-0.011883
760.000000	-0.012424
759.000000	-0.012988
758.000000	-0.011432
757.000000	-0.012403
756.000000	-0.012661
755.000000	-0.012073
754.000000	-0.012843
753.000000	-0.012327
752.000000	-0.012737
751.000000	-0.012334
750.000000	-0.013073
749.000000	-0.013289
748.000000	-0.012948
747.000000	-0.013019
746.000000	-0.012192
745.000000	-0.011908
744.000000	-0.011235
743.000000	-0.011627
742.000000	-0.012137
741.000000	-0.012284
740.000000	-0.012169
739.000000	-0.012332
738.000000	-0.012009
737.000000	-0.011541
736.000000	-0.012284
735.000000	-0.012123
734.000000	-0.012120
733.000000	-0.011971
732.000000	-0.012172
731.000000	-0.011986
730.000000	-0.013143
729.000000	-0.013313
728.000000	-0.012574
727.000000	-0.012999
726.000000	-0.012262
725.000000	-0.012795
724.000000	-0.012687
723.000000	-0.012738
722.000000	-0.012789
721.000000	-0.013118
720.000000	-0.012042
719.000000	-0.012145
718.000000	-0.012640
717.000000	-0.012860
716.000000	-0.012300
715.000000	-0.013018
714.000000	-0.012742
713.000000	-0.011832
712.000000	-0.011721
711.000000	-0.011459
710.000000	-0.011684
709.000000	-0.012040
708.000000	-0.011996
707.000000	-0.011382
706.000000	-0.011202
705.000000	-0.010572
704.000000	-0.010285
703.000000	-0.009592
702.000000	-0.008932
701.000000	-0.008671
700.000000	-0.007420
699.000000	-0.005984
698.000000	-0.005257
697.000000	-0.004082
696.000000	-0.001929
695.000000	0.000406
694.000000	0.002711
693.000000	0.005976
692.000000	0.009129
691.000000	0.012616
690.000000	0.017101
689.000000	0.021927
688.000000	0.026609
687.000000	0.031558
686.000000	0.036470
685.000000	0.041036
684.000000	0.045120
683.000000	0.048748
682.000000	0.052275
681.000000	0.055340
680.000000	0.057859
679.000000	0.060546
678.000000	0.062566
677.000000	0.063878
676.000000	0.065089
675.000000	0.066000
674.000000	0.065946
673.000000	0.065319
672.000000	0.064767
671.000000	0.063704
670.000000	0.061843
669.000000	0.059878
668.000000	0.057687
667.000000	0.054865
666.000000	0.051413
665.000000	0.048108
664.000000	0.044927
663.000000	0.041556
662.000000	0.037902
661.000000	0.034565
660.000000	0.031597
659.000000	0.028746
658.000000	0.026092
657.000000	0.024316
656.000000	0.023099
655.000000	0.021452
654.000000	0.020362
653.000000	0.019156
652.000000	0.018270
651.000000	0.018140
650.000000	0.017809
649.000000	0.017406
648.000000	0.017513
647.000000	0.017140
646.000000	0.017094
645.000000	0.017194
644.000000	0.016713
643.000000	0.016816
642.000000	0.016874
641.000000	0.016532
640.000000	0.016852
639.000000	0.016938
638.000000	0.016913
637.000000	0.016834
636.000000	0.016677
635.000000	0.016928
634.000000	0.016939
633.000000	0.016851
632.000000	0.016781
631.000000	0.016520
630.000000	0.016520
629.000000	0.016379
628.000000	0.015683
627.000000	0.016023
626.000000	0.015986
625.000000	0.015398
624.000000	0.015279
623.000000	0.015407
622.000000	0.015229
621.000000	0.014720
620.000000	0.014633
619.000000	0.014233
618.000000	0.013613
617.000000	0.013331
616.000000	0.013150
615.000000	0.012696
614.000000	0.012268
613.000000	0.011710
612.000000	0.011341
611.000000	0.010910
610.000000	0.009739
609.000000	0.009158
608.000000	0.009455
607.000000	0.008884
606.000000	0.008762
605.000000	0.007908
604.000000	0.008156
603.000000	0.008432
602.000000	0.008687
601.000000	0.009363
600.000000	0.009434
599.000000	0.009738
598.000000	0.010308
597.000000	0.010354
596.000000	0.011515
595.000000	0.011421
594.000000	0.012010
593.000000	0.012147
592.000000	0.011564
591.000000	0.012193
590.000000	0.012278
589.000000	0.012351
588.000000	0.012118
587.000000	0.012383
586.000000	0.012005
585.000000	0.011860
584.000000	0.011876
583.000000	0.011881
582.000000	0.011916
581.000000	0.011750
580.000000	0.011617
579.000000	0.012032
578.000000	0.011641
577.000000	0.011972
576.000000	0.011768
575.000000	0.012446
574.000000	0.013049
573.000000	0.013013
572.000000	0.013289
571.000000	0.013662
570.000000	0.014073
569.000000	0.014290
568.000000	0.015273
567.000000	0.016098
566.000000	0.016725
565.000000	0.017605
564.000000	0.018720
563.000000	0.019792
562.000000	0.021062
561.000000	0.022503
560.000000	0.023085
559.000000	0.025403
558.000000	0.025950
557.000000	0.027199
556.000000	0.028765
555.000000	0.029881
554.000000	0.031036
553.000000	0.032300
552.000000	0.033494
551.000000	0.035159
550.000000	0.035981
549.000000	0.036838
548.000000	0.037982
547.000000	0.040127
546.000000	0.040466
545.000000	0.041597
544.000000	0.042283
543.000000	0.043346
542.000000	0.044499
541.000000	0.045089
540.000000	0.046271
539.000000	0.046841
538.000000	0.048283
537.000000	0.049138
536.000000	0.050123
535.000000	0.050277
534.000000	0.051353
533.000000	0.051126
532.000000	0.052391
531.000000	0.052897
530.000000	0.053878
529.000000	0.054092
528.000000	0.055282
527.000000	0.055503
526.000000	0.056069
525.000000	0.056571
524.000000	0.056841
523.000000	0.057111
522.000000	0.057097
521.000000	0.058308
520.000000	0.058126
519.000000	0.059021
518.000000	0.059528
517.000000	0.059814
516.000000	0.060088
515.000000	0.060621
514.000000	0.060981
513.000000	0.062073
512.000000	0.062635
511.000000	0.062868
510.000000	0.063592
509.000000	0.063832
508.000000	0.064432
507.000000	0.065821
506.000000	0.066569
505.000000	0.067225
504.000000	0.068107
503.000000	0.068764
502.000000	0.069872
501.000000	0.071004
500.000000	0.071419
499.000000	0.072974
498.000000	0.073888
497.000000	0.073855
496.000000	0.074668
495.000000	0.075751
494.000000	0.076238
493.000000	0.076683
492.000000	0.076950
491.000000	0.077390
490.000000	0.077718
489.000000	0.078400
488.000000	0.078466
487.000000	0.078682
486.000000	0.079400
485.000000	0.080222
484.000000	0.080194
483.000000	0.080787
482.000000	0.081397
481.000000	0.082048
480.000000	0.082296
479.000000	0.082997
478.000000	0.084060
477.000000	0.084410
476.000000	0.084880
475.000000	0.085332
474.000000	0.086730
473.000000	0.087327
472.000000	0.087838
471.000000	0.088851
470.000000	0.089582
469.000000	0.089938
468.000000	0.090015
467.000000	0.090232
466.000000	0.090825
465.000000	0.091288
464.000000	0.091986
463.000000	0.091986
462.000000	0.092295
461.000000	0.092262
460.000000	0.091726
459.000000	0.091840
458.000000	0.091670
457.000000	0.091549
456.000000	0.091711
455.000000	0.091650
454.000000	0.091284
453.000000	0.091466
452.000000	0.091295
451.000000	0.091242
450.000000	0.091743
449.000000	0.091996
448.000000	0.092160
447.000000	0.093127
446.000000	0.093918
445.000000	0.094379
444.000000	0.095040
443.000000	0.095637
442.000000	0.096184
441.000000	0.096658
440.000000	0.096993
439.000000	0.097491
438.000000	0.098017
437.000000	0.097961
436.000000	0.097721
435.000000	0.097176
434.000000	0.096525
433.000000	0.096217
432.000000	0.095893
431.000000	0.095597
430.000000	0.095091
429.000000	0.094567
428.000000	0.094344
427.000000	0.094012
426.000000	0.093060
425.000000	0.092582
424.000000	0.093103
423.000000	0.093647
422.000000	0.093319
421.000000	0.092854
420.000000	0.093542
419.000000	0.093713
418.000000	0.093205
417.000000	0.092841
416.000000	0.092960
415.000000	0.092534
414.000000	0.091775
413.000000	0.091646
412.000000	0.091189
411.000000	0.090488
410.000000	0.088878
409.000000	0.087588
408.000000	0.086637
407.000000	0.085120
406.000000	0.084376
405.000000	0.084105
404.000000	0.083307
403.000000	0.081929
402.000000	0.081119
401.000000	0.080273
400.000000	0.079585
399.000000	0.079270
398.000000	0.079031
397.000000	0.078659
396.000000	0.078989
395.000000	0.078788
394.000000	0.079050
393.000000	0.079534
392.000000	0.079616
391.000000	0.080376
390.000000	0.080924
389.000000	0.082521
388.000000	0.083508
387.000000	0.083889
386.000000	0.084974
385.000000	0.086156
384.000000	0.086900
383.000000	0.087511
382.000000	0.088494
381.000000	0.089580
380.000000	0.090873
379.000000	0.092286
378.000000	0.090620
377.000000	0.088294
376.000000	0.087180
375.000000	0.089571
374.000000	0.090146
373.000000	0.089841
372.000000	0.091839
371.000000	0.092027
370.000000	0.092489
369.000000	0.091984
368.000000	0.090135
367.000000	0.090354
366.000000	0.091597
365.000000	0.091263
364.000000	0.092307
363.000000	0.092999
362.000000	0.093374
361.000000	0.093252
360.000000	0.093569
359.000000	0.094444
358.000000	0.093367
357.000000	0.095954
356.000000	0.096150
355.000000	0.095666
354.000000	0.097758
353.000000	0.099345
352.000000	0.101459
351.000000	0.104376
350.000000	0.107716
349.000000	0.109876
348.000000	0.112799
347.000000	0.116965
346.000000	0.124464
345.000000	0.126808
344.000000	0.132489
343.000000	0.134899
342.000000	0.139980
341.000000	0.142608
340.000000	0.144933
339.000000	0.149957
338.000000	0.149000
337.000000	0.152655
336.000000	0.154614
335.000000	0.157738
334.000000	0.157507
333.000000	0.154895
332.000000	0.154862
331.000000	0.158062
330.000000	0.156237
329.000000	0.156523
328.000000	0.156615
327.000000	0.158348
326.000000	0.157278
325.000000	0.161114
324.000000	0.159858
323.000000	0.157244
322.000000	0.159107
321.000000	0.159143
320.000000	0.157498
319.000000	0.158126
318.000000	0.156663
317.000000	0.156976
316.000000	0.156876
315.000000	0.154870
314.000000	0.151826
313.000000	0.151712
312.000000	0.149708
311.000000	0.150712
310.000000	0.149079
309.000000	0.149173
308.000000	0.150462
307.000000	0.148163
306.000000	0.148971
305.000000	0.148158
304.000000	0.149290
303.000000	0.150994
302.000000	0.155317
301.000000	0.155822
300.000000	0.160577
