PE UV       SUBTECH     SPECTRUM    ASCII       PEDS        4.00        
   -1
PETIT_03.Sample.Raw.asc
20/12/14
13:10:56.00
20/12/14
13:10:56.00
CNRS
Blanc02
300.000000
1
Lambda 850
850L1011221
PerkinElmer UV WinLab 6.0.3.0730 / 1.61.00 Lambda 800

0
0
2
0
0
UV/VIS
1
1
1
RBeamAtt,SBeamAtt,150mm sphere / downward view
0
0
0
0
Fix
 
0
0.2
0
0
0
 
 
 
0
 
0
319.2
0
Front
50
 
S:100 R:100
 
0
0
0
 
0
 
 
 
0
 
 
0
0
0
0
0
 
 
 
 
0
0


#HDR
-1
-1
#GR
nm
A
1.0
0.0
800.000000
-1.000000
501
8
0.013583
-0.019408
#DATA
800.000000	-0.013846
799.000000	-0.012097
798.000000	-0.012558
797.000000	-0.013185
796.000000	-0.013136
795.000000	-0.012521
794.000000	-0.013531
793.000000	-0.013522
792.000000	-0.013176
791.000000	-0.013197
790.000000	-0.013002
789.000000	-0.013683
788.000000	-0.013905
787.000000	-0.013614
786.000000	-0.013973
785.000000	-0.013813
784.000000	-0.013531
783.000000	-0.014459
782.000000	-0.013274
781.000000	-0.014030
780.000000	-0.013275
779.000000	-0.014647
778.000000	-0.012467
777.000000	-0.013050
776.000000	-0.014413
775.000000	-0.012646
774.000000	-0.012996
773.000000	-0.012133
772.000000	-0.012362
771.000000	-0.012001
770.000000	-0.012387
769.000000	-0.013381
768.000000	-0.013748
767.000000	-0.013709
766.000000	-0.013022
765.000000	-0.012189
764.000000	-0.012769
763.000000	-0.012611
762.000000	-0.012186
761.000000	-0.013094
760.000000	-0.013744
759.000000	-0.013732
758.000000	-0.012946
757.000000	-0.013237
756.000000	-0.013359
755.000000	-0.013748
754.000000	-0.014113
753.000000	-0.013223
752.000000	-0.013457
751.000000	-0.013582
750.000000	-0.013900
749.000000	-0.013669
748.000000	-0.012963
747.000000	-0.013483
746.000000	-0.013217
745.000000	-0.012606
744.000000	-0.013152
743.000000	-0.013289
742.000000	-0.012268
741.000000	-0.013402
740.000000	-0.013167
739.000000	-0.013306
738.000000	-0.012981
737.000000	-0.013075
736.000000	-0.013242
735.000000	-0.013227
734.000000	-0.013003
733.000000	-0.013303
732.000000	-0.013699
731.000000	-0.013346
730.000000	-0.013549
729.000000	-0.014318
728.000000	-0.013547
727.000000	-0.013374
726.000000	-0.013409
725.000000	-0.013657
724.000000	-0.013707
723.000000	-0.014041
722.000000	-0.013831
721.000000	-0.014165
720.000000	-0.013612
719.000000	-0.013926
718.000000	-0.014914
717.000000	-0.014514
716.000000	-0.014070
715.000000	-0.014060
714.000000	-0.014255
713.000000	-0.013759
712.000000	-0.013912
711.000000	-0.014332
710.000000	-0.014738
709.000000	-0.014570
708.000000	-0.014731
707.000000	-0.014873
706.000000	-0.014503
705.000000	-0.013884
704.000000	-0.014327
703.000000	-0.014409
702.000000	-0.014405
701.000000	-0.014853
700.000000	-0.014966
699.000000	-0.014567
698.000000	-0.014269
697.000000	-0.014401
696.000000	-0.014477
695.000000	-0.014416
694.000000	-0.014510
693.000000	-0.014291
692.000000	-0.014561
691.000000	-0.014947
690.000000	-0.014635
689.000000	-0.014807
688.000000	-0.014826
687.000000	-0.014672
686.000000	-0.014551
685.000000	-0.014340
684.000000	-0.014361
683.000000	-0.014236
682.000000	-0.014163
681.000000	-0.014212
680.000000	-0.014349
679.000000	-0.014322
678.000000	-0.014263
677.000000	-0.014307
676.000000	-0.014196
675.000000	-0.013820
674.000000	-0.014248
673.000000	-0.014839
672.000000	-0.014618
671.000000	-0.014408
670.000000	-0.014471
669.000000	-0.014533
668.000000	-0.014544
667.000000	-0.014814
666.000000	-0.014880
665.000000	-0.014550
664.000000	-0.014298
663.000000	-0.014274
662.000000	-0.014361
661.000000	-0.014314
660.000000	-0.014183
659.000000	-0.014342
658.000000	-0.014783
657.000000	-0.014734
656.000000	-0.014241
655.000000	-0.014328
654.000000	-0.014391
653.000000	-0.014526
652.000000	-0.014643
651.000000	-0.014321
650.000000	-0.014429
649.000000	-0.014524
648.000000	-0.014114
647.000000	-0.014378
646.000000	-0.014644
645.000000	-0.014537
644.000000	-0.014446
643.000000	-0.014334
642.000000	-0.013996
641.000000	-0.014425
640.000000	-0.014160
639.000000	-0.014301
638.000000	-0.014717
637.000000	-0.014893
636.000000	-0.014878
635.000000	-0.014354
634.000000	-0.014200
633.000000	-0.014690
632.000000	-0.014932
631.000000	-0.014719
630.000000	-0.014502
629.000000	-0.014349
628.000000	-0.014661
627.000000	-0.014301
626.000000	-0.014186
625.000000	-0.014201
624.000000	-0.014564
623.000000	-0.014666
622.000000	-0.014686
621.000000	-0.015189
620.000000	-0.014468
619.000000	-0.014347
618.000000	-0.014549
617.000000	-0.014645
616.000000	-0.014584
615.000000	-0.014592
614.000000	-0.014414
613.000000	-0.014299
612.000000	-0.014657
611.000000	-0.014290
610.000000	-0.014685
609.000000	-0.014450
608.000000	-0.014281
607.000000	-0.014476
606.000000	-0.014841
605.000000	-0.015300
604.000000	-0.014848
603.000000	-0.014963
602.000000	-0.014986
601.000000	-0.014529
600.000000	-0.014462
599.000000	-0.014671
598.000000	-0.014667
597.000000	-0.014844
596.000000	-0.013970
595.000000	-0.014612
594.000000	-0.014127
593.000000	-0.014482
592.000000	-0.015119
591.000000	-0.014413
590.000000	-0.014320
589.000000	-0.014419
588.000000	-0.014739
587.000000	-0.014476
586.000000	-0.014699
585.000000	-0.014850
584.000000	-0.014823
583.000000	-0.014702
582.000000	-0.014514
581.000000	-0.014617
580.000000	-0.014498
579.000000	-0.014184
578.000000	-0.014771
577.000000	-0.014607
576.000000	-0.015092
575.000000	-0.014849
574.000000	-0.014456
573.000000	-0.014385
572.000000	-0.014901
571.000000	-0.014781
570.000000	-0.014700
569.000000	-0.014775
568.000000	-0.014491
567.000000	-0.014535
566.000000	-0.014709
565.000000	-0.014599
564.000000	-0.014140
563.000000	-0.014423
562.000000	-0.013867
561.000000	-0.014156
560.000000	-0.014666
559.000000	-0.014167
558.000000	-0.014366
557.000000	-0.014609
556.000000	-0.013878
555.000000	-0.014382
554.000000	-0.014436
553.000000	-0.014458
552.000000	-0.014329
551.000000	-0.014341
550.000000	-0.014129
549.000000	-0.014321
548.000000	-0.014814
547.000000	-0.013359
546.000000	-0.014099
545.000000	-0.014202
544.000000	-0.014314
543.000000	-0.014154
542.000000	-0.014118
541.000000	-0.014508
540.000000	-0.014084
539.000000	-0.014167
538.000000	-0.014218
537.000000	-0.014284
536.000000	-0.013846
535.000000	-0.014228
534.000000	-0.013763
533.000000	-0.014895
532.000000	-0.014519
531.000000	-0.014285
530.000000	-0.014447
529.000000	-0.014491
528.000000	-0.014225
527.000000	-0.014234
526.000000	-0.014121
525.000000	-0.014102
524.000000	-0.014379
523.000000	-0.014491
522.000000	-0.014933
521.000000	-0.014002
520.000000	-0.014535
519.000000	-0.014165
518.000000	-0.014010
517.000000	-0.014616
516.000000	-0.014031
515.000000	-0.013629
514.000000	-0.014712
513.000000	-0.014603
512.000000	-0.014212
511.000000	-0.014034
510.000000	-0.014175
509.000000	-0.014290
508.000000	-0.014466
507.000000	-0.014338
506.000000	-0.014163
505.000000	-0.014202
504.000000	-0.014064
503.000000	-0.014015
502.000000	-0.014191
501.000000	-0.013992
500.000000	-0.014087
499.000000	-0.014101
498.000000	-0.013966
497.000000	-0.014160
496.000000	-0.014206
495.000000	-0.013856
494.000000	-0.013923
493.000000	-0.014090
492.000000	-0.013736
491.000000	-0.013950
490.000000	-0.013838
489.000000	-0.014060
488.000000	-0.013622
487.000000	-0.013975
486.000000	-0.013729
485.000000	-0.013507
484.000000	-0.013916
483.000000	-0.013487
482.000000	-0.013284
481.000000	-0.013963
480.000000	-0.014260
479.000000	-0.014044
478.000000	-0.014422
477.000000	-0.013531
476.000000	-0.014130
475.000000	-0.014352
474.000000	-0.014218
473.000000	-0.014220
472.000000	-0.014553
471.000000	-0.014342
470.000000	-0.014201
469.000000	-0.014701
468.000000	-0.014325
467.000000	-0.014456
466.000000	-0.014823
465.000000	-0.014726
464.000000	-0.014600
463.000000	-0.014733
462.000000	-0.014668
461.000000	-0.014672
460.000000	-0.014208
459.000000	-0.014447
458.000000	-0.014400
457.000000	-0.014279
456.000000	-0.014370
455.000000	-0.014379
454.000000	-0.014458
453.000000	-0.014356
452.000000	-0.014262
451.000000	-0.014582
450.000000	-0.014682
449.000000	-0.014874
448.000000	-0.014919
447.000000	-0.014875
446.000000	-0.014820
445.000000	-0.014293
444.000000	-0.014264
443.000000	-0.014322
442.000000	-0.014131
441.000000	-0.014148
440.000000	-0.014623
439.000000	-0.014150
438.000000	-0.014268
437.000000	-0.014477
436.000000	-0.014026
435.000000	-0.014388
434.000000	-0.014392
433.000000	-0.014253
432.000000	-0.014598
431.000000	-0.014479
430.000000	-0.014254
429.000000	-0.014264
428.000000	-0.014549
427.000000	-0.014826
426.000000	-0.015014
425.000000	-0.015132
424.000000	-0.014902
423.000000	-0.014487
422.000000	-0.014851
421.000000	-0.015309
420.000000	-0.015086
419.000000	-0.015166
418.000000	-0.014725
417.000000	-0.014764
416.000000	-0.015239
415.000000	-0.015280
414.000000	-0.015388
413.000000	-0.015614
412.000000	-0.015338
411.000000	-0.014621
410.000000	-0.015224
409.000000	-0.015617
408.000000	-0.015503
407.000000	-0.016301
406.000000	-0.015986
405.000000	-0.015542
404.000000	-0.015894
403.000000	-0.016126
402.000000	-0.016011
401.000000	-0.016044
400.000000	-0.015747
399.000000	-0.015818
398.000000	-0.015925
397.000000	-0.016032
396.000000	-0.016292
395.000000	-0.016180
394.000000	-0.016329
393.000000	-0.015932
392.000000	-0.016251
391.000000	-0.015591
390.000000	-0.015898
389.000000	-0.015945
388.000000	-0.015447
387.000000	-0.016127
386.000000	-0.016466
385.000000	-0.017215
384.000000	-0.017036
383.000000	-0.016248
382.000000	-0.017122
381.000000	-0.016414
380.000000	-0.016234
379.000000	-0.016656
378.000000	-0.015340
377.000000	-0.015814
376.000000	-0.015481
375.000000	-0.014655
374.000000	-0.014719
373.000000	-0.015403
372.000000	-0.015711
371.000000	-0.015476
370.000000	-0.016429
369.000000	-0.015746
368.000000	-0.017019
367.000000	-0.017481
366.000000	-0.018271
365.000000	-0.016755
364.000000	-0.016564
363.000000	-0.017343
362.000000	-0.018496
361.000000	-0.018465
360.000000	-0.016831
359.000000	-0.016642
358.000000	-0.017009
357.000000	-0.017156
356.000000	-0.017338
355.000000	-0.017204
354.000000	-0.019008
353.000000	-0.018197
352.000000	-0.018285
351.000000	-0.014981
350.000000	-0.015943
349.000000	-0.017699
348.000000	-0.018607
347.000000	-0.018299
346.000000	-0.017540
345.000000	-0.019256
344.000000	-0.016619
343.000000	-0.017251
342.000000	-0.018491
341.000000	-0.019408
340.000000	-0.017174
339.000000	-0.016020
338.000000	-0.017514
337.000000	-0.016790
336.000000	-0.018374
335.000000	-0.017292
334.000000	-0.017449
333.000000	-0.017336
332.000000	-0.018636
331.000000	-0.016517
330.000000	-0.018096
329.000000	-0.016219
328.000000	-0.017672
327.000000	-0.017810
326.000000	-0.018363
325.000000	-0.017196
324.000000	-0.015507
323.000000	-0.016365
322.000000	-0.013890
321.000000	-0.008866
320.000000	-0.014784
319.000000	-0.013334
318.000000	-0.014674
317.000000	-0.013519
316.000000	-0.011052
315.000000	-0.010216
314.000000	-0.010784
313.000000	-0.008341
312.000000	-0.008232
311.000000	-0.006503
310.000000	-0.005357
309.000000	-0.003617
308.000000	-0.002089
307.000000	-0.002711
306.000000	-0.001875
305.000000	0.000190
304.000000	0.001043
303.000000	0.003687
302.000000	0.007815
301.000000	0.009577
300.000000	0.013583
