PE UV       SUBTECH     SPECTRUM    ASCII       PEDS        4.00        
   -1
PETIT_11.Sample.Raw.asc
20/12/14
13:39:30.00
20/12/14
13:39:30.00
CNRS
RCC4213_A_D2
300.000000
1
Lambda 850
850L1011221
PerkinElmer UV WinLab 6.0.3.0730 / 1.61.00 Lambda 800

0
0
2
0
0
UV/VIS
1
1
1
RBeamAtt,SBeamAtt,150mm sphere / downward view
0
0
0
0
Fix
 
0
0.2
0
0
0
 
 
 
0
 
0
319.2
0
Front
50
 
S:100 R:100
 
0
0
0
 
0
 
 
 
0
 
 
0
0
0
0
0
 
 
 
 
0
0


#HDR
-1
-1
#GR
nm
A
1.0
0.0
800.000000
-1.000000
501
8
0.099054
-0.014635
#DATA
800.000000	-0.013423
799.000000	-0.012786
798.000000	-0.012054
797.000000	-0.013225
796.000000	-0.012223
795.000000	-0.012601
794.000000	-0.013927
793.000000	-0.013648
792.000000	-0.013727
791.000000	-0.013998
790.000000	-0.013772
789.000000	-0.013953
788.000000	-0.013481
787.000000	-0.013314
786.000000	-0.013588
785.000000	-0.013824
784.000000	-0.011022
783.000000	0.014590
782.000000	-0.013911
781.000000	-0.014064
780.000000	-0.013030
779.000000	-0.014276
778.000000	-0.012229
777.000000	-0.013789
776.000000	-0.013537
775.000000	-0.013243
774.000000	-0.013523
773.000000	-0.012188
772.000000	-0.013088
771.000000	-0.013200
770.000000	-0.013076
769.000000	-0.013037
768.000000	-0.013509
767.000000	-0.013372
766.000000	-0.012749
765.000000	-0.012614
764.000000	-0.012823
763.000000	-0.013145
762.000000	-0.012961
761.000000	-0.012775
760.000000	-0.013246
759.000000	-0.013742
758.000000	-0.012720
757.000000	-0.012749
756.000000	-0.013485
755.000000	-0.014190
754.000000	-0.014093
753.000000	-0.013048
752.000000	-0.012825
751.000000	-0.013414
750.000000	-0.014111
749.000000	-0.013544
748.000000	-0.013245
747.000000	-0.013793
746.000000	-0.013641
745.000000	-0.013211
744.000000	-0.012728
743.000000	-0.013078
742.000000	-0.012888
741.000000	-0.013625
740.000000	-0.013176
739.000000	-0.013468
738.000000	-0.012685
737.000000	-0.012553
736.000000	-0.012653
735.000000	-0.013096
734.000000	-0.012994
733.000000	-0.013352
732.000000	-0.014117
731.000000	-0.013525
730.000000	-0.013372
729.000000	-0.013977
728.000000	-0.013964
727.000000	-0.013783
726.000000	-0.013861
725.000000	-0.014635
724.000000	-0.014304
723.000000	-0.014329
722.000000	-0.014379
721.000000	-0.014462
720.000000	-0.013855
719.000000	-0.013584
718.000000	-0.014471
717.000000	-0.013815
716.000000	-0.013088
715.000000	-0.013700
714.000000	-0.013984
713.000000	-0.013450
712.000000	-0.013165
711.000000	-0.013237
710.000000	-0.013244
709.000000	-0.013192
708.000000	-0.012929
707.000000	-0.012382
706.000000	-0.012557
705.000000	-0.011887
704.000000	-0.011520
703.000000	-0.010435
702.000000	-0.009339
701.000000	-0.008986
700.000000	-0.008280
699.000000	-0.007269
698.000000	-0.005900
697.000000	-0.004281
696.000000	-0.002515
695.000000	0.000025
694.000000	0.002673
693.000000	0.005446
692.000000	0.008510
691.000000	0.011994
690.000000	0.016279
689.000000	0.020512
688.000000	0.024791
687.000000	0.029246
686.000000	0.033293
685.000000	0.037496
684.000000	0.042114
683.000000	0.046082
682.000000	0.049742
681.000000	0.053060
680.000000	0.056149
679.000000	0.059351
678.000000	0.061880
677.000000	0.063543
676.000000	0.064921
675.000000	0.066006
674.000000	0.065712
673.000000	0.065108
672.000000	0.064349
671.000000	0.062538
670.000000	0.060093
669.000000	0.057323
668.000000	0.054225
667.000000	0.050860
666.000000	0.047064
665.000000	0.043417
664.000000	0.039762
663.000000	0.036132
662.000000	0.032760
661.000000	0.029146
660.000000	0.025834
659.000000	0.022726
658.000000	0.019884
657.000000	0.017413
656.000000	0.015402
655.000000	0.013527
654.000000	0.011969
653.000000	0.010518
652.000000	0.009240
651.000000	0.008705
650.000000	0.008067
649.000000	0.007599
648.000000	0.007479
647.000000	0.006868
646.000000	0.007273
645.000000	0.007708
644.000000	0.007735
643.000000	0.008253
642.000000	0.008889
641.000000	0.009433
640.000000	0.009854
639.000000	0.010090
638.000000	0.010939
637.000000	0.010936
636.000000	0.010774
635.000000	0.011428
634.000000	0.011712
633.000000	0.011191
632.000000	0.011149
631.000000	0.011071
630.000000	0.011038
629.000000	0.010894
628.000000	0.009815
627.000000	0.010136
626.000000	0.010477
625.000000	0.010001
624.000000	0.009898
623.000000	0.009642
622.000000	0.009650
621.000000	0.009196
620.000000	0.008900
619.000000	0.008998
618.000000	0.008332
617.000000	0.007727
616.000000	0.007529
615.000000	0.007060
614.000000	0.006812
613.000000	0.006150
612.000000	0.005472
611.000000	0.005166
610.000000	0.003853
609.000000	0.003231
608.000000	0.003539
607.000000	0.002816
606.000000	0.002493
605.000000	0.001519
604.000000	0.001543
603.000000	0.001650
602.000000	0.001791
601.000000	0.001821
600.000000	0.001884
599.000000	0.002344
598.000000	0.002294
597.000000	0.002043
596.000000	0.003355
595.000000	0.003248
594.000000	0.004149
593.000000	0.003929
592.000000	0.003822
591.000000	0.004815
590.000000	0.005268
589.000000	0.005053
588.000000	0.004936
587.000000	0.005123
586.000000	0.004938
585.000000	0.005099
584.000000	0.005579
583.000000	0.005155
582.000000	0.005353
581.000000	0.005362
580.000000	0.005510
579.000000	0.005722
578.000000	0.005149
577.000000	0.005630
576.000000	0.005311
575.000000	0.005693
574.000000	0.006225
573.000000	0.006199
572.000000	0.006357
571.000000	0.006912
570.000000	0.006798
569.000000	0.007077
568.000000	0.008036
567.000000	0.008288
566.000000	0.008790
565.000000	0.009312
564.000000	0.010217
563.000000	0.010842
562.000000	0.012195
561.000000	0.012889
560.000000	0.013172
559.000000	0.014985
558.000000	0.015274
557.000000	0.016035
556.000000	0.017171
555.000000	0.018278
554.000000	0.018936
553.000000	0.019957
552.000000	0.020910
551.000000	0.021989
550.000000	0.023097
549.000000	0.023830
548.000000	0.024476
547.000000	0.026316
546.000000	0.026412
545.000000	0.027098
544.000000	0.027814
543.000000	0.028601
542.000000	0.029592
541.000000	0.029834
540.000000	0.030770
539.000000	0.031582
538.000000	0.032247
537.000000	0.032969
536.000000	0.033630
535.000000	0.033451
534.000000	0.034400
533.000000	0.034087
532.000000	0.035071
531.000000	0.035313
530.000000	0.035755
529.000000	0.036150
528.000000	0.036973
527.000000	0.037546
526.000000	0.037804
525.000000	0.038316
524.000000	0.038656
523.000000	0.039034
522.000000	0.038666
521.000000	0.039691
520.000000	0.040502
519.000000	0.041092
518.000000	0.041843
517.000000	0.042063
516.000000	0.042143
515.000000	0.043192
514.000000	0.043222
513.000000	0.044399
512.000000	0.044946
511.000000	0.045990
510.000000	0.046533
509.000000	0.047217
508.000000	0.048073
507.000000	0.048799
506.000000	0.050144
505.000000	0.050789
504.000000	0.051475
503.000000	0.052591
502.000000	0.053754
501.000000	0.054770
500.000000	0.055850
499.000000	0.056701
498.000000	0.057642
497.000000	0.058071
496.000000	0.058789
495.000000	0.059691
494.000000	0.060237
493.000000	0.060673
492.000000	0.060900
491.000000	0.061095
490.000000	0.061165
489.000000	0.061603
488.000000	0.061907
487.000000	0.061808
486.000000	0.062444
485.000000	0.062629
484.000000	0.062542
483.000000	0.062828
482.000000	0.063019
481.000000	0.063026
480.000000	0.063043
479.000000	0.063373
478.000000	0.063922
477.000000	0.065195
476.000000	0.066035
475.000000	0.066975
474.000000	0.068322
473.000000	0.069297
472.000000	0.070263
471.000000	0.071874
470.000000	0.073323
469.000000	0.074268
468.000000	0.075554
467.000000	0.076751
466.000000	0.077769
465.000000	0.078694
464.000000	0.079530
463.000000	0.080234
462.000000	0.081048
461.000000	0.081134
460.000000	0.081396
459.000000	0.082003
458.000000	0.082430
457.000000	0.082879
456.000000	0.083260
455.000000	0.083822
454.000000	0.083911
453.000000	0.084300
452.000000	0.085234
451.000000	0.085744
450.000000	0.087046
449.000000	0.087501
448.000000	0.088020
447.000000	0.089986
446.000000	0.091615
445.000000	0.093220
444.000000	0.094868
443.000000	0.095729
442.000000	0.096600
441.000000	0.097331
440.000000	0.098137
439.000000	0.098676
438.000000	0.099052
437.000000	0.099054
436.000000	0.098558
435.000000	0.097759
434.000000	0.097203
433.000000	0.096696
432.000000	0.095682
431.000000	0.094611
430.000000	0.094061
429.000000	0.093069
428.000000	0.091918
427.000000	0.090936
426.000000	0.089908
425.000000	0.089609
424.000000	0.089793
423.000000	0.089398
422.000000	0.088344
421.000000	0.087614
420.000000	0.087996
419.000000	0.087931
418.000000	0.087403
417.000000	0.086762
416.000000	0.086045
415.000000	0.085241
414.000000	0.084479
413.000000	0.083712
412.000000	0.082751
411.000000	0.081884
410.000000	0.079776
409.000000	0.078046
408.000000	0.077007
407.000000	0.075649
406.000000	0.074565
405.000000	0.073290
404.000000	0.072029
403.000000	0.070225
402.000000	0.068705
401.000000	0.067887
400.000000	0.067340
399.000000	0.066332
398.000000	0.065837
397.000000	0.065108
396.000000	0.064856
395.000000	0.064200
394.000000	0.062976
393.000000	0.062296
392.000000	0.061588
391.000000	0.061360
390.000000	0.061302
389.000000	0.060460
388.000000	0.060079
387.000000	0.059955
386.000000	0.058843
385.000000	0.057963
384.000000	0.057332
383.000000	0.056348
382.000000	0.055020
381.000000	0.055248
380.000000	0.054404
379.000000	0.053418
378.000000	0.052102
377.000000	0.049277
376.000000	0.046438
375.000000	0.047660
374.000000	0.046477
373.000000	0.045362
372.000000	0.043697
371.000000	0.042852
370.000000	0.040807
369.000000	0.039907
368.000000	0.038692
367.000000	0.038389
366.000000	0.037463
365.000000	0.037594
364.000000	0.036154
363.000000	0.035788
362.000000	0.035619
361.000000	0.035839
360.000000	0.035878
359.000000	0.035823
358.000000	0.035148
357.000000	0.035190
356.000000	0.034766
355.000000	0.033846
354.000000	0.033273
353.000000	0.034536
352.000000	0.032335
351.000000	0.033852
350.000000	0.034715
349.000000	0.034192
348.000000	0.034608
347.000000	0.034028
346.000000	0.035674
345.000000	0.035621
344.000000	0.035511
343.000000	0.035733
342.000000	0.035962
341.000000	0.036447
340.000000	0.035660
339.000000	0.036818
338.000000	0.036931
337.000000	0.038141
336.000000	0.040106
335.000000	0.041111
334.000000	0.040187
333.000000	0.038317
332.000000	0.038484
331.000000	0.039535
330.000000	0.036534
329.000000	0.039180
328.000000	0.036210
327.000000	0.037907
326.000000	0.036850
325.000000	0.036113
324.000000	0.037234
323.000000	0.036362
322.000000	0.039988
321.000000	0.043748
320.000000	0.039912
319.000000	0.044893
318.000000	0.041644
317.000000	0.039946
316.000000	0.041349
315.000000	0.043518
314.000000	0.042017
313.000000	0.045389
312.000000	0.045094
311.000000	0.045690
310.000000	0.050025
309.000000	0.050111
308.000000	0.053174
307.000000	0.052963
306.000000	0.056134
305.000000	0.056984
304.000000	0.059835
303.000000	0.063899
302.000000	0.068497
301.000000	0.072573
300.000000	0.077913
