PE UV       SUBTECH     SPECTRUM    ASCII       PEDS        4.00        
   -1
PETIT_13.Sample.Raw.asc
20/12/14
13:46:37.00
20/12/14
13:46:37.00
CNRS
Blanc03
300.000000
1
Lambda 850
850L1011221
PerkinElmer UV WinLab 6.0.3.0730 / 1.61.00 Lambda 800

0
0
2
0
0
UV/VIS
1
1
1
RBeamAtt,SBeamAtt,150mm sphere / downward view
0
0
0
0
Fix
 
0
0.2
0
0
0
 
 
 
0
 
0
319.2
0
Front
50
 
S:100 R:100
 
0
0
0
 
0
 
 
 
0
 
 
0
0
0
0
0
 
 
 
 
0
0


#HDR
-1
-1
#GR
nm
A
1.0
0.0
800.000000
-1.000000
501
8
0.013240
-0.020307
#DATA
800.000000	-0.013347
799.000000	-0.011441
798.000000	-0.011251
797.000000	-0.012439
796.000000	-0.012525
795.000000	-0.012052
794.000000	-0.012154
793.000000	-0.010921
792.000000	-0.012703
791.000000	-0.011518
790.000000	-0.013321
789.000000	-0.013168
788.000000	-0.012685
787.000000	-0.011730
786.000000	-0.012575
785.000000	-0.012061
784.000000	-0.012598
783.000000	-0.012279
782.000000	-0.012891
781.000000	-0.013324
780.000000	-0.011523
779.000000	-0.013601
778.000000	-0.012500
777.000000	-0.011845
776.000000	-0.012379
775.000000	-0.011280
774.000000	-0.011978
773.000000	-0.010124
772.000000	-0.012441
771.000000	-0.012047
770.000000	-0.011821
769.000000	-0.012297
768.000000	-0.012414
767.000000	-0.012768
766.000000	-0.011448
765.000000	-0.011966
764.000000	-0.012204
763.000000	-0.012488
762.000000	-0.011921
761.000000	-0.011416
760.000000	-0.013035
759.000000	-0.012888
758.000000	-0.012116
757.000000	-0.012689
756.000000	-0.012745
755.000000	-0.012863
754.000000	-0.012833
753.000000	-0.013079
752.000000	-0.012471
751.000000	-0.012277
750.000000	-0.013643
749.000000	-0.012982
748.000000	-0.012314
747.000000	-0.012632
746.000000	-0.012396
745.000000	-0.012035
744.000000	-0.011446
743.000000	-0.011973
742.000000	-0.012194
741.000000	-0.012274
740.000000	-0.011819
739.000000	-0.012393
738.000000	-0.012339
737.000000	-0.012335
736.000000	-0.011923
735.000000	-0.012141
734.000000	-0.012504
733.000000	-0.012390
732.000000	-0.013031
731.000000	-0.012653
730.000000	-0.013008
729.000000	-0.013365
728.000000	-0.013023
727.000000	-0.013110
726.000000	-0.013238
725.000000	-0.013552
724.000000	-0.013081
723.000000	-0.013507
722.000000	-0.013116
721.000000	-0.013095
720.000000	-0.012972
719.000000	-0.013101
718.000000	-0.013479
717.000000	-0.013302
716.000000	-0.013270
715.000000	-0.013440
714.000000	-0.013319
713.000000	-0.013818
712.000000	-0.013958
711.000000	-0.013277
710.000000	-0.013348
709.000000	-0.013861
708.000000	-0.014086
707.000000	-0.014035
706.000000	-0.013546
705.000000	-0.013180
704.000000	-0.014051
703.000000	-0.013807
702.000000	-0.013043
701.000000	-0.013595
700.000000	-0.013878
699.000000	-0.013649
698.000000	-0.013631
697.000000	-0.013829
696.000000	-0.013519
695.000000	-0.013350
694.000000	-0.013377
693.000000	-0.013418
692.000000	-0.013625
691.000000	-0.014190
690.000000	-0.014115
689.000000	-0.013903
688.000000	-0.013873
687.000000	-0.013981
686.000000	-0.013891
685.000000	-0.013852
684.000000	-0.013571
683.000000	-0.013529
682.000000	-0.013860
681.000000	-0.013901
680.000000	-0.013967
679.000000	-0.013873
678.000000	-0.013316
677.000000	-0.013608
676.000000	-0.013771
675.000000	-0.013107
674.000000	-0.013477
673.000000	-0.014046
672.000000	-0.013651
671.000000	-0.013633
670.000000	-0.014093
669.000000	-0.013774
668.000000	-0.013396
667.000000	-0.013634
666.000000	-0.013886
665.000000	-0.013678
664.000000	-0.013292
663.000000	-0.013152
662.000000	-0.013466
661.000000	-0.013728
660.000000	-0.013776
659.000000	-0.013937
658.000000	-0.014135
657.000000	-0.014048
656.000000	-0.013802
655.000000	-0.013892
654.000000	-0.013676
653.000000	-0.013471
652.000000	-0.013807
651.000000	-0.014075
650.000000	-0.014056
649.000000	-0.013726
648.000000	-0.013770
647.000000	-0.014281
646.000000	-0.014355
645.000000	-0.014332
644.000000	-0.013996
643.000000	-0.014050
642.000000	-0.013858
641.000000	-0.013860
640.000000	-0.013956
639.000000	-0.014116
638.000000	-0.014032
637.000000	-0.013952
636.000000	-0.014159
635.000000	-0.014091
634.000000	-0.013775
633.000000	-0.013785
632.000000	-0.013754
631.000000	-0.013805
630.000000	-0.013880
629.000000	-0.013633
628.000000	-0.014177
627.000000	-0.013681
626.000000	-0.013247
625.000000	-0.013779
624.000000	-0.013910
623.000000	-0.013983
622.000000	-0.013751
621.000000	-0.014309
620.000000	-0.013835
619.000000	-0.014025
618.000000	-0.014014
617.000000	-0.014137
616.000000	-0.014128
615.000000	-0.014452
614.000000	-0.013936
613.000000	-0.013692
612.000000	-0.013582
611.000000	-0.013727
610.000000	-0.014597
609.000000	-0.014353
608.000000	-0.014000
607.000000	-0.014319
606.000000	-0.014146
605.000000	-0.014547
604.000000	-0.014375
603.000000	-0.014207
602.000000	-0.014073
601.000000	-0.013987
600.000000	-0.014167
599.000000	-0.014021
598.000000	-0.014098
597.000000	-0.014437
596.000000	-0.013486
595.000000	-0.014046
594.000000	-0.013617
593.000000	-0.013688
592.000000	-0.014002
591.000000	-0.013905
590.000000	-0.013750
589.000000	-0.014204
588.000000	-0.014087
587.000000	-0.014115
586.000000	-0.014343
585.000000	-0.014294
584.000000	-0.014477
583.000000	-0.014261
582.000000	-0.013740
581.000000	-0.014153
580.000000	-0.014404
579.000000	-0.013814
578.000000	-0.014494
577.000000	-0.014158
576.000000	-0.014565
575.000000	-0.014407
574.000000	-0.013603
573.000000	-0.014055
572.000000	-0.013970
571.000000	-0.013921
570.000000	-0.014109
569.000000	-0.014161
568.000000	-0.013807
567.000000	-0.013926
566.000000	-0.013864
565.000000	-0.014143
564.000000	-0.014003
563.000000	-0.013913
562.000000	-0.013648
561.000000	-0.013474
560.000000	-0.014318
559.000000	-0.013113
558.000000	-0.013673
557.000000	-0.013884
556.000000	-0.013375
555.000000	-0.013635
554.000000	-0.013813
553.000000	-0.013679
552.000000	-0.013600
551.000000	-0.013600
550.000000	-0.013235
549.000000	-0.013262
548.000000	-0.013944
547.000000	-0.012467
546.000000	-0.012966
545.000000	-0.013558
544.000000	-0.013606
543.000000	-0.013313
542.000000	-0.013753
541.000000	-0.013815
540.000000	-0.013721
539.000000	-0.013381
538.000000	-0.013432
537.000000	-0.013220
536.000000	-0.012817
535.000000	-0.013702
534.000000	-0.013122
533.000000	-0.014144
532.000000	-0.013500
531.000000	-0.013715
530.000000	-0.013563
529.000000	-0.013901
528.000000	-0.013482
527.000000	-0.013525
526.000000	-0.013278
525.000000	-0.013655
524.000000	-0.013552
523.000000	-0.013850
522.000000	-0.014335
521.000000	-0.013297
520.000000	-0.014027
519.000000	-0.013640
518.000000	-0.013382
517.000000	-0.013759
516.000000	-0.013953
515.000000	-0.013752
514.000000	-0.014225
513.000000	-0.013822
512.000000	-0.013371
511.000000	-0.013620
510.000000	-0.013729
509.000000	-0.013855
508.000000	-0.014138
507.000000	-0.013425
506.000000	-0.013759
505.000000	-0.013729
504.000000	-0.013663
503.000000	-0.013754
502.000000	-0.013724
501.000000	-0.013421
500.000000	-0.013653
499.000000	-0.013750
498.000000	-0.013284
497.000000	-0.013255
496.000000	-0.012996
495.000000	-0.013323
494.000000	-0.013539
493.000000	-0.013146
492.000000	-0.013162
491.000000	-0.013359
490.000000	-0.013274
489.000000	-0.012944
488.000000	-0.012961
487.000000	-0.013084
486.000000	-0.012752
485.000000	-0.012599
484.000000	-0.013267
483.000000	-0.012673
482.000000	-0.012469
481.000000	-0.012855
480.000000	-0.013581
479.000000	-0.013374
478.000000	-0.013120
477.000000	-0.012920
476.000000	-0.013073
475.000000	-0.013572
474.000000	-0.013543
473.000000	-0.013116
472.000000	-0.013286
471.000000	-0.013012
470.000000	-0.013331
469.000000	-0.013790
468.000000	-0.013548
467.000000	-0.013675
466.000000	-0.013731
465.000000	-0.013951
464.000000	-0.013702
463.000000	-0.013405
462.000000	-0.013585
461.000000	-0.013898
460.000000	-0.013963
459.000000	-0.013744
458.000000	-0.013580
457.000000	-0.013626
456.000000	-0.013944
455.000000	-0.013599
454.000000	-0.013737
453.000000	-0.013622
452.000000	-0.013587
451.000000	-0.013886
450.000000	-0.013814
449.000000	-0.013842
448.000000	-0.013852
447.000000	-0.013813
446.000000	-0.013339
445.000000	-0.013165
444.000000	-0.013143
443.000000	-0.013501
442.000000	-0.013660
441.000000	-0.013579
440.000000	-0.013720
439.000000	-0.013643
438.000000	-0.013151
437.000000	-0.013439
436.000000	-0.013844
435.000000	-0.013828
434.000000	-0.013982
433.000000	-0.013841
432.000000	-0.013564
431.000000	-0.013549
430.000000	-0.013627
429.000000	-0.013478
428.000000	-0.013711
427.000000	-0.013860
426.000000	-0.014238
425.000000	-0.014407
424.000000	-0.014160
423.000000	-0.013830
422.000000	-0.014041
421.000000	-0.014444
420.000000	-0.014133
419.000000	-0.014230
418.000000	-0.013991
417.000000	-0.013888
416.000000	-0.014144
415.000000	-0.014379
414.000000	-0.014414
413.000000	-0.014639
412.000000	-0.014483
411.000000	-0.014099
410.000000	-0.014802
409.000000	-0.014992
408.000000	-0.014808
407.000000	-0.015343
406.000000	-0.015456
405.000000	-0.015176
404.000000	-0.015036
403.000000	-0.015265
402.000000	-0.015272
401.000000	-0.015328
400.000000	-0.015060
399.000000	-0.015131
398.000000	-0.014930
397.000000	-0.015443
396.000000	-0.015325
395.000000	-0.014589
394.000000	-0.014853
393.000000	-0.015160
392.000000	-0.015538
391.000000	-0.015431
390.000000	-0.014809
389.000000	-0.014758
388.000000	-0.015182
387.000000	-0.015011
386.000000	-0.015269
385.000000	-0.015518
384.000000	-0.015126
383.000000	-0.015456
382.000000	-0.015554
381.000000	-0.015978
380.000000	-0.015668
379.000000	-0.015863
378.000000	-0.014917
377.000000	-0.016002
376.000000	-0.016181
375.000000	-0.014353
374.000000	-0.014275
373.000000	-0.016293
372.000000	-0.015824
371.000000	-0.015383
370.000000	-0.015861
369.000000	-0.015474
368.000000	-0.016541
367.000000	-0.016876
366.000000	-0.017627
365.000000	-0.016973
364.000000	-0.018268
363.000000	-0.018750
362.000000	-0.017301
361.000000	-0.018009
360.000000	-0.018142
359.000000	-0.016753
358.000000	-0.017050
357.000000	-0.017825
356.000000	-0.017499
355.000000	-0.017859
354.000000	-0.018577
353.000000	-0.018480
352.000000	-0.019718
351.000000	-0.017962
350.000000	-0.016055
349.000000	-0.018869
348.000000	-0.018584
347.000000	-0.019034
346.000000	-0.018029
345.000000	-0.018851
344.000000	-0.018355
343.000000	-0.017756
342.000000	-0.016553
341.000000	-0.017777
340.000000	-0.018584
339.000000	-0.018532
338.000000	-0.018892
337.000000	-0.017101
336.000000	-0.019522
335.000000	-0.018881
334.000000	-0.018577
333.000000	-0.018592
332.000000	-0.020307
331.000000	-0.017265
330.000000	-0.017692
329.000000	-0.016897
328.000000	-0.018112
327.000000	-0.019065
326.000000	-0.016799
325.000000	-0.018104
324.000000	-0.016224
323.000000	-0.018626
322.000000	-0.013189
321.000000	-0.011097
320.000000	-0.017149
319.000000	-0.013094
318.000000	-0.013250
317.000000	-0.012322
316.000000	-0.010784
315.000000	-0.009735
314.000000	-0.010534
313.000000	-0.009147
312.000000	-0.007202
311.000000	-0.006875
310.000000	-0.005440
309.000000	-0.003042
308.000000	-0.003018
307.000000	-0.001504
306.000000	0.001140
305.000000	0.001737
304.000000	0.002455
303.000000	0.004206
302.000000	0.008551
301.000000	0.010434
300.000000	0.013240
