PE UV       SUBTECH     SPECTRUM    ASCII       PEDS        4.00        
   -1
PETIT_17.Sample.Raw.asc
20/12/14
14:16:18.00
20/12/14
14:16:18.00
CNRS
RCC2374_A_DM
300.000000
1
Lambda 850
850L1011221
PerkinElmer UV WinLab 6.0.3.0730 / 1.61.00 Lambda 800

0
0
2
0
0
UV/VIS
1
1
1
RBeamAtt,SBeamAtt,150mm sphere / downward view
0
0
0
0
Fix
 
0
0.2
0
0
0
 
 
 
0
 
0
319.2
0
Front
50
 
S:100 R:100
 
0
0
0
 
0
 
 
 
0
 
 
0
0
0
0
0
 
 
 
 
0
0


#HDR
-1
-1
#GR
nm
A
1.0
0.0
800.000000
-1.000000
501
8
0.103147
-0.015085
#DATA
800.000000	-0.014049
799.000000	-0.012473
798.000000	-0.011065
797.000000	-0.013016
796.000000	-0.012981
795.000000	-0.012484
794.000000	-0.012352
793.000000	-0.012575
792.000000	-0.015085
791.000000	-0.011583
790.000000	-0.011872
789.000000	-0.013845
788.000000	-0.013405
787.000000	-0.012091
786.000000	-0.012219
785.000000	-0.012112
784.000000	-0.012498
783.000000	-0.012268
782.000000	-0.013538
781.000000	-0.013552
780.000000	-0.012068
779.000000	-0.014001
778.000000	-0.011913
777.000000	-0.012199
776.000000	-0.013404
775.000000	-0.012726
774.000000	-0.012944
773.000000	-0.011961
772.000000	-0.011724
771.000000	-0.011904
770.000000	-0.012203
769.000000	-0.013142
768.000000	-0.012494
767.000000	-0.012795
766.000000	-0.011925
765.000000	-0.011420
764.000000	-0.012286
763.000000	-0.013233
762.000000	-0.012429
761.000000	-0.012060
760.000000	-0.012817
759.000000	-0.012720
758.000000	-0.011447
757.000000	-0.012923
756.000000	-0.012233
755.000000	-0.012647
754.000000	-0.013490
753.000000	-0.012489
752.000000	-0.012885
751.000000	-0.012537
750.000000	-0.013132
749.000000	-0.012478
748.000000	-0.012021
747.000000	-0.012426
746.000000	-0.012737
745.000000	-0.013053
744.000000	-0.012005
743.000000	-0.012213
742.000000	-0.012325
741.000000	-0.012241
740.000000	-0.012408
739.000000	-0.012466
738.000000	-0.012544
737.000000	-0.012268
736.000000	-0.012213
735.000000	-0.012494
734.000000	-0.012984
733.000000	-0.012769
732.000000	-0.013420
731.000000	-0.012798
730.000000	-0.012594
729.000000	-0.012953
728.000000	-0.012822
727.000000	-0.012528
726.000000	-0.012513
725.000000	-0.013580
724.000000	-0.013123
723.000000	-0.013495
722.000000	-0.013408
721.000000	-0.013384
720.000000	-0.012941
719.000000	-0.012675
718.000000	-0.013179
717.000000	-0.012973
716.000000	-0.013073
715.000000	-0.013355
714.000000	-0.012724
713.000000	-0.012220
712.000000	-0.011803
711.000000	-0.012075
710.000000	-0.012292
709.000000	-0.011824
708.000000	-0.011823
707.000000	-0.011636
706.000000	-0.011123
705.000000	-0.010156
704.000000	-0.009842
703.000000	-0.009044
702.000000	-0.007844
701.000000	-0.006813
700.000000	-0.005707
699.000000	-0.004077
698.000000	-0.002607
697.000000	-0.001572
696.000000	0.000654
695.000000	0.003562
694.000000	0.006023
693.000000	0.008982
692.000000	0.011988
691.000000	0.014961
690.000000	0.018478
689.000000	0.021901
688.000000	0.025012
687.000000	0.028730
686.000000	0.032063
685.000000	0.035136
684.000000	0.037875
683.000000	0.040430
682.000000	0.042813
681.000000	0.044086
680.000000	0.044832
679.000000	0.045659
678.000000	0.045690
677.000000	0.044805
676.000000	0.044222
675.000000	0.043608
674.000000	0.042398
673.000000	0.040937
672.000000	0.039739
671.000000	0.038396
670.000000	0.036456
669.000000	0.034338
668.000000	0.032128
667.000000	0.029486
666.000000	0.027031
665.000000	0.024535
664.000000	0.021944
663.000000	0.019587
662.000000	0.017229
661.000000	0.014676
660.000000	0.012503
659.000000	0.010656
658.000000	0.009258
657.000000	0.007949
656.000000	0.006891
655.000000	0.005893
654.000000	0.005074
653.000000	0.004248
652.000000	0.003565
651.000000	0.003420
650.000000	0.003061
649.000000	0.002943
648.000000	0.003257
647.000000	0.002915
646.000000	0.003027
645.000000	0.003229
644.000000	0.003057
643.000000	0.003560
642.000000	0.003678
641.000000	0.003637
640.000000	0.004162
639.000000	0.004399
638.000000	0.004865
637.000000	0.004907
636.000000	0.004683
635.000000	0.005091
634.000000	0.005529
633.000000	0.005653
632.000000	0.005372
631.000000	0.004843
630.000000	0.004650
629.000000	0.005112
628.000000	0.004800
627.000000	0.005295
626.000000	0.005517
625.000000	0.004859
624.000000	0.004726
623.000000	0.004906
622.000000	0.004659
621.000000	0.003984
620.000000	0.003801
619.000000	0.003287
618.000000	0.003057
617.000000	0.002930
616.000000	0.002673
615.000000	0.002189
614.000000	0.002388
613.000000	0.001839
612.000000	0.001326
611.000000	0.001014
610.000000	0.000074
609.000000	-0.000143
608.000000	-0.000003
607.000000	-0.001016
606.000000	-0.001080
605.000000	-0.001867
604.000000	-0.001599
603.000000	-0.001691
602.000000	-0.001587
601.000000	-0.001434
600.000000	-0.001676
599.000000	-0.001690
598.000000	-0.001523
597.000000	-0.002083
596.000000	-0.001279
595.000000	-0.001622
594.000000	-0.001188
593.000000	-0.001620
592.000000	-0.001914
591.000000	-0.001810
590.000000	-0.001487
589.000000	-0.001544
588.000000	-0.001709
587.000000	-0.001778
586.000000	-0.001773
585.000000	-0.001854
584.000000	-0.001486
583.000000	-0.001331
582.000000	-0.001159
581.000000	-0.001224
580.000000	-0.000936
579.000000	-0.000746
578.000000	-0.000406
577.000000	0.000414
576.000000	0.000467
575.000000	0.000882
574.000000	0.002385
573.000000	0.002951
572.000000	0.003509
571.000000	0.004609
570.000000	0.005516
569.000000	0.006336
568.000000	0.007329
567.000000	0.008352
566.000000	0.008893
565.000000	0.010218
564.000000	0.011577
563.000000	0.012697
562.000000	0.014334
561.000000	0.016026
560.000000	0.016992
559.000000	0.019211
558.000000	0.020471
557.000000	0.022137
556.000000	0.024085
555.000000	0.025814
554.000000	0.027101
553.000000	0.028128
552.000000	0.029730
551.000000	0.030825
550.000000	0.031608
549.000000	0.031978
548.000000	0.032526
547.000000	0.033986
546.000000	0.033857
545.000000	0.033583
544.000000	0.033375
543.000000	0.033443
542.000000	0.033254
541.000000	0.032758
540.000000	0.032881
539.000000	0.032943
538.000000	0.032503
537.000000	0.032093
536.000000	0.032063
535.000000	0.031319
534.000000	0.031405
533.000000	0.030086
532.000000	0.030478
531.000000	0.030271
530.000000	0.030145
529.000000	0.029661
528.000000	0.030056
527.000000	0.030008
526.000000	0.030201
525.000000	0.030211
524.000000	0.030108
523.000000	0.030525
522.000000	0.030069
521.000000	0.031385
520.000000	0.032003
519.000000	0.033008
518.000000	0.033715
517.000000	0.034533
516.000000	0.035652
515.000000	0.036984
514.000000	0.038181
513.000000	0.039574
512.000000	0.041128
511.000000	0.042469
510.000000	0.044180
509.000000	0.045693
508.000000	0.048077
507.000000	0.050270
506.000000	0.051546
505.000000	0.053439
504.000000	0.055885
503.000000	0.057587
502.000000	0.059721
501.000000	0.061402
500.000000	0.062175
499.000000	0.063775
498.000000	0.064832
497.000000	0.065657
496.000000	0.065993
495.000000	0.066545
494.000000	0.067077
493.000000	0.066946
492.000000	0.066108
491.000000	0.065704
490.000000	0.065443
489.000000	0.065176
488.000000	0.065107
487.000000	0.064024
486.000000	0.064099
485.000000	0.063261
484.000000	0.062100
483.000000	0.062026
482.000000	0.062214
481.000000	0.061802
480.000000	0.060843
479.000000	0.060653
478.000000	0.060275
477.000000	0.060787
476.000000	0.061625
475.000000	0.061341
474.000000	0.061618
473.000000	0.062372
472.000000	0.062755
471.000000	0.063784
470.000000	0.064361
469.000000	0.064491
468.000000	0.065238
467.000000	0.065484
466.000000	0.065969
465.000000	0.066108
464.000000	0.066697
463.000000	0.066597
462.000000	0.067539
461.000000	0.068032
460.000000	0.067885
459.000000	0.068255
458.000000	0.068706
457.000000	0.069379
456.000000	0.070369
455.000000	0.071497
454.000000	0.072142
453.000000	0.074223
452.000000	0.075968
451.000000	0.077703
450.000000	0.080387
449.000000	0.083171
448.000000	0.086033
447.000000	0.089221
446.000000	0.091820
445.000000	0.094306
444.000000	0.096787
443.000000	0.098404
442.000000	0.100095
441.000000	0.101162
440.000000	0.101731
439.000000	0.102728
438.000000	0.103147
437.000000	0.103068
436.000000	0.102385
435.000000	0.101376
434.000000	0.100719
433.000000	0.100076
432.000000	0.099051
431.000000	0.097708
430.000000	0.096772
429.000000	0.096086
428.000000	0.095000
427.000000	0.094128
426.000000	0.093307
425.000000	0.092481
424.000000	0.092371
423.000000	0.092370
422.000000	0.091896
421.000000	0.091728
420.000000	0.091611
419.000000	0.091322
418.000000	0.091707
417.000000	0.091412
416.000000	0.090480
415.000000	0.089963
414.000000	0.089275
413.000000	0.088386
412.000000	0.087776
411.000000	0.087486
410.000000	0.086255
409.000000	0.085016
408.000000	0.084097
407.000000	0.083046
406.000000	0.082781
405.000000	0.081986
404.000000	0.081287
403.000000	0.080658
402.000000	0.080456
401.000000	0.080360
400.000000	0.080516
399.000000	0.080650
398.000000	0.080536
397.000000	0.080536
396.000000	0.081524
395.000000	0.082144
394.000000	0.082516
393.000000	0.083093
392.000000	0.082925
391.000000	0.083646
390.000000	0.084367
389.000000	0.085028
388.000000	0.085447
387.000000	0.085758
386.000000	0.085805
385.000000	0.084838
384.000000	0.084581
383.000000	0.083947
382.000000	0.082827
381.000000	0.081779
380.000000	0.080638
379.000000	0.079008
378.000000	0.076929
377.000000	0.073797
376.000000	0.070492
375.000000	0.069403
374.000000	0.067477
373.000000	0.065579
372.000000	0.062755
371.000000	0.060440
370.000000	0.057224
369.000000	0.055589
368.000000	0.051173
367.000000	0.049078
366.000000	0.048656
365.000000	0.047248
364.000000	0.045548
363.000000	0.043758
362.000000	0.040977
361.000000	0.039753
360.000000	0.040057
359.000000	0.039705
358.000000	0.036284
357.000000	0.035216
356.000000	0.035691
355.000000	0.036434
354.000000	0.033933
353.000000	0.033453
352.000000	0.033415
351.000000	0.033726
350.000000	0.034297
349.000000	0.032684
348.000000	0.031279
347.000000	0.030907
346.000000	0.031256
345.000000	0.030858
344.000000	0.032231
343.000000	0.033668
342.000000	0.031888
341.000000	0.029752
340.000000	0.030959
339.000000	0.033828
338.000000	0.031245
337.000000	0.031191
336.000000	0.030890
335.000000	0.030439
334.000000	0.031428
333.000000	0.031878
332.000000	0.030790
331.000000	0.030144
330.000000	0.028029
329.000000	0.027485
328.000000	0.027939
327.000000	0.026208
326.000000	0.026820
325.000000	0.028689
324.000000	0.027375
323.000000	0.024415
322.000000	0.029672
321.000000	0.029062
320.000000	0.030197
319.000000	0.032052
318.000000	0.028876
317.000000	0.030213
316.000000	0.030682
315.000000	0.032089
314.000000	0.030283
313.000000	0.032843
312.000000	0.032720
311.000000	0.035682
310.000000	0.037922
309.000000	0.039811
308.000000	0.040693
307.000000	0.041708
306.000000	0.043607
305.000000	0.046944
304.000000	0.048447
303.000000	0.051968
302.000000	0.057381
301.000000	0.059678
300.000000	0.064610
