PE UV       SUBTECH     SPECTRUM    ASCII       PEDS        4.00        
   -1
PETIT_19.Sample.Raw.asc
20/12/14
14:23:28.00
20/12/14
14:23:28.00
CNRS
RCC9511_A_D0
300.000000
1
Lambda 850
850L1011221
PerkinElmer UV WinLab 6.0.3.0730 / 1.61.00 Lambda 800

0
0
2
0
0
UV/VIS
1
1
1
RBeamAtt,SBeamAtt,150mm sphere / downward view
0
0
0
0
Fix
 
0
0.2
0
0
0
 
 
 
0
 
0
319.2
0
Front
50
 
S:100 R:100
 
0
0
0
 
0
 
 
 
0
 
 
0
0
0
0
0
 
 
 
 
0
0


#HDR
-1
-1
#GR
nm
A
1.0
0.0
800.000000
-1.000000
501
8
0.476573
-0.008251
#DATA
800.000000	0.001254
799.000000	0.001702
798.000000	0.002021
797.000000	-0.000497
796.000000	0.000012
795.000000	-0.000813
794.000000	-0.001744
793.000000	-0.002128
792.000000	-0.002793
791.000000	-0.002393
790.000000	-0.004050
789.000000	-0.005019
788.000000	-0.004504
787.000000	-0.004615
786.000000	-0.004853
785.000000	-0.004987
784.000000	-0.004197
783.000000	-0.005454
782.000000	-0.006582
781.000000	-0.006691
780.000000	-0.005219
779.000000	-0.006780
778.000000	-0.005207
777.000000	-0.006462
776.000000	-0.007279
775.000000	-0.006125
774.000000	-0.006996
773.000000	-0.005620
772.000000	-0.006416
771.000000	-0.006759
770.000000	-0.005308
769.000000	-0.006222
768.000000	-0.006667
767.000000	-0.006307
766.000000	-0.006567
765.000000	-0.006176
764.000000	-0.007070
763.000000	-0.007762
762.000000	-0.007427
761.000000	-0.006392
760.000000	-0.007576
759.000000	-0.006607
758.000000	-0.006315
757.000000	-0.007486
756.000000	-0.007157
755.000000	-0.007439
754.000000	-0.008251
753.000000	-0.006343
752.000000	-0.006627
751.000000	-0.007416
750.000000	-0.007291
749.000000	-0.007205
748.000000	-0.006950
747.000000	-0.007208
746.000000	-0.006853
745.000000	-0.006572
744.000000	-0.006206
743.000000	-0.007146
742.000000	-0.007075
741.000000	-0.007273
740.000000	-0.006772
739.000000	-0.006948
738.000000	-0.006607
737.000000	-0.006372
736.000000	-0.006140
735.000000	-0.006491
734.000000	-0.006996
733.000000	-0.006620
732.000000	-0.006930
731.000000	-0.006847
730.000000	-0.007291
729.000000	-0.007412
728.000000	-0.006874
727.000000	-0.007298
726.000000	-0.007224
725.000000	-0.007380
724.000000	-0.006962
723.000000	-0.007147
722.000000	-0.007327
721.000000	-0.007224
720.000000	-0.006330
719.000000	-0.006669
718.000000	-0.006958
717.000000	-0.005899
716.000000	-0.005290
715.000000	-0.005366
714.000000	-0.004749
713.000000	-0.004108
712.000000	-0.003421
711.000000	-0.002464
710.000000	-0.001980
709.000000	-0.001341
708.000000	0.000334
707.000000	0.001700
706.000000	0.003492
705.000000	0.005660
704.000000	0.007758
703.000000	0.010905
702.000000	0.014504
701.000000	0.017865
700.000000	0.022356
699.000000	0.027409
698.000000	0.032911
697.000000	0.039931
696.000000	0.048187
695.000000	0.057449
694.000000	0.068370
693.000000	0.080248
692.000000	0.092876
691.000000	0.106608
690.000000	0.121810
689.000000	0.136903
688.000000	0.152003
687.000000	0.166883
686.000000	0.180799
685.000000	0.194001
684.000000	0.206236
683.000000	0.217361
682.000000	0.227239
681.000000	0.235402
680.000000	0.241985
679.000000	0.247865
678.000000	0.252900
677.000000	0.256533
676.000000	0.259642
675.000000	0.262284
674.000000	0.263009
673.000000	0.262556
672.000000	0.261320
671.000000	0.258241
670.000000	0.252812
669.000000	0.246170
668.000000	0.237969
667.000000	0.227684
666.000000	0.216578
665.000000	0.204899
664.000000	0.192479
663.000000	0.180011
662.000000	0.167582
661.000000	0.155497
660.000000	0.144243
659.000000	0.133741
658.000000	0.124285
657.000000	0.116224
656.000000	0.108804
655.000000	0.102318
654.000000	0.096716
653.000000	0.092196
652.000000	0.088182
651.000000	0.084953
650.000000	0.081843
649.000000	0.079352
648.000000	0.077881
647.000000	0.075789
646.000000	0.074407
645.000000	0.073515
644.000000	0.072710
643.000000	0.072451
642.000000	0.072412
641.000000	0.072483
640.000000	0.072969
639.000000	0.073720
638.000000	0.074490
637.000000	0.075123
636.000000	0.075427
635.000000	0.076264
634.000000	0.077342
633.000000	0.077824
632.000000	0.077946
631.000000	0.078449
630.000000	0.078414
629.000000	0.078259
628.000000	0.077501
627.000000	0.077509
626.000000	0.076677
625.000000	0.075628
624.000000	0.074578
623.000000	0.073333
622.000000	0.072527
621.000000	0.071225
620.000000	0.070581
619.000000	0.069433
618.000000	0.067876
617.000000	0.066814
616.000000	0.065797
615.000000	0.064178
614.000000	0.062868
613.000000	0.061514
612.000000	0.059875
611.000000	0.058643
610.000000	0.056616
609.000000	0.055192
608.000000	0.054278
607.000000	0.052729
606.000000	0.051269
605.000000	0.049941
604.000000	0.049149
603.000000	0.048175
602.000000	0.048181
601.000000	0.047865
600.000000	0.047164
599.000000	0.046931
598.000000	0.046378
597.000000	0.045878
596.000000	0.046839
595.000000	0.046178
594.000000	0.046539
593.000000	0.046021
592.000000	0.045326
591.000000	0.045271
590.000000	0.044938
589.000000	0.044178
588.000000	0.043870
587.000000	0.043267
586.000000	0.042379
585.000000	0.041973
584.000000	0.041579
583.000000	0.040790
582.000000	0.040454
581.000000	0.040120
580.000000	0.039294
579.000000	0.039069
578.000000	0.037840
577.000000	0.037242
576.000000	0.036150
575.000000	0.035815
574.000000	0.035644
573.000000	0.034744
572.000000	0.034416
571.000000	0.033754
570.000000	0.033437
569.000000	0.032946
568.000000	0.033280
567.000000	0.033343
566.000000	0.033218
565.000000	0.033195
564.000000	0.033883
563.000000	0.034063
562.000000	0.035099
561.000000	0.035006
560.000000	0.035431
559.000000	0.036424
558.000000	0.036562
557.000000	0.037209
556.000000	0.038001
555.000000	0.038759
554.000000	0.039456
553.000000	0.040651
552.000000	0.041335
551.000000	0.042518
550.000000	0.043502
549.000000	0.043967
548.000000	0.044901
547.000000	0.047165
546.000000	0.047134
545.000000	0.048791
544.000000	0.049498
543.000000	0.050789
542.000000	0.051850
541.000000	0.053116
540.000000	0.054933
539.000000	0.056647
538.000000	0.058706
537.000000	0.060272
536.000000	0.062542
535.000000	0.063725
534.000000	0.066540
533.000000	0.068078
532.000000	0.071582
531.000000	0.074026
530.000000	0.077479
529.000000	0.080838
528.000000	0.085259
527.000000	0.089376
526.000000	0.094050
525.000000	0.099101
524.000000	0.104784
523.000000	0.110331
522.000000	0.115997
521.000000	0.123344
520.000000	0.130287
519.000000	0.138558
518.000000	0.146445
517.000000	0.154463
516.000000	0.163208
515.000000	0.172360
514.000000	0.180983
513.000000	0.190759
512.000000	0.200390
511.000000	0.210283
510.000000	0.219786
509.000000	0.229397
508.000000	0.238583
507.000000	0.248092
506.000000	0.257297
505.000000	0.265777
504.000000	0.274547
503.000000	0.282098
502.000000	0.289560
501.000000	0.296748
500.000000	0.303106
499.000000	0.308759
498.000000	0.314372
497.000000	0.318862
496.000000	0.323277
495.000000	0.326894
494.000000	0.330553
493.000000	0.333373
492.000000	0.335583
491.000000	0.337627
490.000000	0.339443
489.000000	0.340853
488.000000	0.342294
487.000000	0.342874
486.000000	0.344349
485.000000	0.345928
484.000000	0.346658
483.000000	0.347728
482.000000	0.349464
481.000000	0.350734
480.000000	0.351750
479.000000	0.353484
478.000000	0.355232
477.000000	0.357978
476.000000	0.360518
475.000000	0.363361
474.000000	0.366835
473.000000	0.370153
472.000000	0.373451
471.000000	0.377429
470.000000	0.380990
469.000000	0.385209
468.000000	0.390056
467.000000	0.393816
466.000000	0.398891
465.000000	0.403680
464.000000	0.408827
463.000000	0.413940
462.000000	0.419182
461.000000	0.424513
460.000000	0.429561
459.000000	0.434926
458.000000	0.439751
457.000000	0.444566
456.000000	0.448960
455.000000	0.453067
454.000000	0.456436
453.000000	0.460336
452.000000	0.463614
451.000000	0.466443
450.000000	0.469714
449.000000	0.471629
448.000000	0.473292
447.000000	0.475304
446.000000	0.476133
445.000000	0.476301
444.000000	0.476573
443.000000	0.475692
442.000000	0.473932
441.000000	0.472112
440.000000	0.469824
439.000000	0.467756
438.000000	0.466683
437.000000	0.464338
436.000000	0.461881
435.000000	0.460162
434.000000	0.458295
433.000000	0.456849
432.000000	0.455726
431.000000	0.454435
430.000000	0.453066
429.000000	0.451516
428.000000	0.450149
427.000000	0.448981
426.000000	0.447024
425.000000	0.445188
424.000000	0.443828
423.000000	0.442263
422.000000	0.440009
421.000000	0.436926
420.000000	0.434682
419.000000	0.432312
418.000000	0.429867
417.000000	0.426790
416.000000	0.423232
415.000000	0.420428
414.000000	0.417277
413.000000	0.414187
412.000000	0.411742
411.000000	0.409631
410.000000	0.406625
409.000000	0.404136
408.000000	0.401773
407.000000	0.399127
406.000000	0.397690
405.000000	0.396596
404.000000	0.395300
403.000000	0.393880
402.000000	0.393570
401.000000	0.393005
400.000000	0.392226
399.000000	0.391990
398.000000	0.392879
397.000000	0.392406
396.000000	0.392914
395.000000	0.394140
394.000000	0.394237
393.000000	0.394163
392.000000	0.393867
391.000000	0.394139
390.000000	0.393361
389.000000	0.392547
388.000000	0.391590
387.000000	0.390599
386.000000	0.388336
385.000000	0.385253
384.000000	0.381913
383.000000	0.378364
382.000000	0.373661
381.000000	0.369258
380.000000	0.365282
379.000000	0.360199
378.000000	0.348918
377.000000	0.342452
376.000000	0.335018
375.000000	0.331184
374.000000	0.326787
373.000000	0.324453
372.000000	0.319544
371.000000	0.315728
370.000000	0.311924
369.000000	0.308574
368.000000	0.305394
367.000000	0.304642
366.000000	0.301661
365.000000	0.300919
364.000000	0.297944
363.000000	0.297055
362.000000	0.295592
361.000000	0.294926
360.000000	0.296028
359.000000	0.293717
358.000000	0.291848
357.000000	0.293131
356.000000	0.292230
355.000000	0.292786
354.000000	0.291115
353.000000	0.291475
352.000000	0.292407
351.000000	0.293772
350.000000	0.295051
349.000000	0.292792
348.000000	0.294957
347.000000	0.295123
346.000000	0.296413
345.000000	0.297156
344.000000	0.300019
343.000000	0.302392
342.000000	0.301387
341.000000	0.299364
340.000000	0.301416
339.000000	0.302253
338.000000	0.300665
337.000000	0.303671
336.000000	0.302568
335.000000	0.302642
334.000000	0.303913
333.000000	0.302240
332.000000	0.300400
331.000000	0.303450
330.000000	0.300845
329.000000	0.302143
328.000000	0.303214
327.000000	0.301026
326.000000	0.301754
325.000000	0.305511
324.000000	0.301179
323.000000	0.301904
322.000000	0.306150
321.000000	0.310835
320.000000	0.310327
319.000000	0.307336
318.000000	0.322040
317.000000	0.326306
316.000000	0.328504
315.000000	0.329475
314.000000	0.330798
313.000000	0.333130
312.000000	0.334209
311.000000	0.336510
310.000000	0.340073
309.000000	0.342426
308.000000	0.345189
307.000000	0.348382
306.000000	0.353136
305.000000	0.357451
304.000000	0.361927
303.000000	0.369860
302.000000	0.376479
301.000000	0.383580
300.000000	0.390964
