PE UV       SUBTECH     SPECTRUM    ASCII       PEDS        4.00        
   -1
PETIT_15.Sample.Raw.asc
20/12/14
14:08:57.00
20/12/14
14:08:57.00
CNRS
RCC0076_A_DM
300.000000
1
Lambda 850
850L1011221
PerkinElmer UV WinLab 6.0.3.0730 / 1.61.00 Lambda 800

0
0
2
0
0
UV/VIS
1
1
1
RBeamAtt,SBeamAtt,150mm sphere / downward view
0
0
0
0
Fix
 
0
0.2
0
0
0
 
 
 
0
 
0
319.2
0
Front
50
 
S:100 R:100
 
0
0
0
 
0
 
 
 
0
 
 
0
0
0
0
0
 
 
 
 
0
0


#HDR
-1
-1
#GR
nm
A
1.0
0.0
800.000000
-1.000000
501
8
0.085977
-0.014473
#DATA
800.000000	-0.013774
799.000000	-0.012068
798.000000	-0.012567
797.000000	-0.013569
796.000000	-0.012719
795.000000	-0.012629
794.000000	-0.011834
793.000000	-0.013641
792.000000	-0.014473
791.000000	-0.013066
790.000000	-0.013997
789.000000	-0.013791
788.000000	-0.012566
787.000000	-0.012331
786.000000	-0.013462
785.000000	-0.012389
784.000000	-0.012719
783.000000	-0.013192
782.000000	-0.012329
781.000000	-0.013775
780.000000	-0.012636
779.000000	-0.013647
778.000000	-0.013073
777.000000	-0.012768
776.000000	-0.013263
775.000000	-0.012283
774.000000	-0.012704
773.000000	-0.011795
772.000000	-0.012748
771.000000	-0.013211
770.000000	-0.011956
769.000000	-0.013082
768.000000	-0.013142
767.000000	-0.013616
766.000000	-0.012388
765.000000	-0.012161
764.000000	-0.012478
763.000000	-0.013448
762.000000	-0.012256
761.000000	-0.013367
760.000000	-0.013559
759.000000	-0.013650
758.000000	-0.012774
757.000000	-0.013332
756.000000	-0.013326
755.000000	-0.013212
754.000000	-0.014412
753.000000	-0.013517
752.000000	-0.013018
751.000000	-0.013211
750.000000	-0.013265
749.000000	-0.013305
748.000000	-0.012661
747.000000	-0.013571
746.000000	-0.013610
745.000000	-0.012832
744.000000	-0.012585
743.000000	-0.012877
742.000000	-0.013023
741.000000	-0.012923
740.000000	-0.011946
739.000000	-0.012344
738.000000	-0.012740
737.000000	-0.012741
736.000000	-0.012594
735.000000	-0.013172
734.000000	-0.013019
733.000000	-0.012925
732.000000	-0.013135
731.000000	-0.013452
730.000000	-0.013521
729.000000	-0.013349
728.000000	-0.013150
727.000000	-0.013414
726.000000	-0.013329
725.000000	-0.013497
724.000000	-0.012896
723.000000	-0.013341
722.000000	-0.013385
721.000000	-0.013826
720.000000	-0.013478
719.000000	-0.013301
718.000000	-0.013001
717.000000	-0.012367
716.000000	-0.012093
715.000000	-0.012639
714.000000	-0.012330
713.000000	-0.011564
712.000000	-0.011092
711.000000	-0.011031
710.000000	-0.011096
709.000000	-0.011057
708.000000	-0.010256
707.000000	-0.009474
706.000000	-0.008497
705.000000	-0.007656
704.000000	-0.007362
703.000000	-0.005844
702.000000	-0.004083
701.000000	-0.002811
700.000000	-0.001397
699.000000	0.001208
698.000000	0.003373
697.000000	0.005874
696.000000	0.008996
695.000000	0.012581
694.000000	0.016106
693.000000	0.020055
692.000000	0.023873
691.000000	0.027601
690.000000	0.032202
689.000000	0.036222
688.000000	0.039831
687.000000	0.043328
686.000000	0.046503
685.000000	0.049305
684.000000	0.051948
683.000000	0.054221
682.000000	0.056004
681.000000	0.057436
680.000000	0.058551
679.000000	0.059735
678.000000	0.061236
677.000000	0.062118
676.000000	0.062509
675.000000	0.063099
674.000000	0.063134
673.000000	0.062715
672.000000	0.062400
671.000000	0.061382
670.000000	0.059850
669.000000	0.058460
668.000000	0.056559
667.000000	0.054163
666.000000	0.051932
665.000000	0.049538
664.000000	0.046449
663.000000	0.043588
662.000000	0.040394
661.000000	0.037198
660.000000	0.034491
659.000000	0.031387
658.000000	0.028237
657.000000	0.026171
656.000000	0.023888
655.000000	0.021229
654.000000	0.019013
653.000000	0.017438
652.000000	0.016216
651.000000	0.015335
650.000000	0.014401
649.000000	0.013585
648.000000	0.013544
647.000000	0.013007
646.000000	0.012884
645.000000	0.012953
644.000000	0.013302
643.000000	0.013990
642.000000	0.014145
641.000000	0.014148
640.000000	0.015086
639.000000	0.015414
638.000000	0.015840
637.000000	0.016125
636.000000	0.016082
635.000000	0.016558
634.000000	0.016720
633.000000	0.016470
632.000000	0.016730
631.000000	0.016738
630.000000	0.016393
629.000000	0.016512
628.000000	0.015827
627.000000	0.016205
626.000000	0.016501
625.000000	0.016064
624.000000	0.015975
623.000000	0.015761
622.000000	0.016189
621.000000	0.015663
620.000000	0.014897
619.000000	0.014566
618.000000	0.014405
617.000000	0.013794
616.000000	0.013493
615.000000	0.012893
614.000000	0.012242
613.000000	0.011673
612.000000	0.011038
611.000000	0.010532
610.000000	0.008979
609.000000	0.008651
608.000000	0.008701
607.000000	0.007697
606.000000	0.006994
605.000000	0.005985
604.000000	0.006109
603.000000	0.005896
602.000000	0.005862
601.000000	0.005894
600.000000	0.005434
599.000000	0.005348
598.000000	0.005573
597.000000	0.005301
596.000000	0.006289
595.000000	0.006209
594.000000	0.006909
593.000000	0.006700
592.000000	0.006547
591.000000	0.006878
590.000000	0.007371
589.000000	0.007345
588.000000	0.007422
587.000000	0.007375
586.000000	0.006915
585.000000	0.007267
584.000000	0.007469
583.000000	0.007231
582.000000	0.007568
581.000000	0.007306
580.000000	0.007267
579.000000	0.007392
578.000000	0.006830
577.000000	0.007038
576.000000	0.006475
575.000000	0.006827
574.000000	0.007199
573.000000	0.006916
572.000000	0.006865
571.000000	0.007042
570.000000	0.007082
569.000000	0.007151
568.000000	0.007557
567.000000	0.007957
566.000000	0.007856
565.000000	0.008185
564.000000	0.008982
563.000000	0.009479
562.000000	0.010063
561.000000	0.011268
560.000000	0.011242
559.000000	0.012270
558.000000	0.012633
557.000000	0.012919
556.000000	0.014417
555.000000	0.014922
554.000000	0.015854
553.000000	0.016468
552.000000	0.017262
551.000000	0.018014
550.000000	0.018682
549.000000	0.019101
548.000000	0.020014
547.000000	0.021684
546.000000	0.021605
545.000000	0.022183
544.000000	0.022611
543.000000	0.023755
542.000000	0.023822
541.000000	0.024273
540.000000	0.025224
539.000000	0.025837
538.000000	0.026502
537.000000	0.027019
536.000000	0.027531
535.000000	0.027413
534.000000	0.028437
533.000000	0.028213
532.000000	0.029480
531.000000	0.029583
530.000000	0.029968
529.000000	0.030431
528.000000	0.030955
527.000000	0.031387
526.000000	0.031871
525.000000	0.032373
524.000000	0.032811
523.000000	0.032832
522.000000	0.033123
521.000000	0.034471
520.000000	0.034813
519.000000	0.035511
518.000000	0.036415
517.000000	0.036477
516.000000	0.037068
515.000000	0.038202
514.000000	0.038570
513.000000	0.039280
512.000000	0.040261
511.000000	0.040860
510.000000	0.041992
509.000000	0.042518
508.000000	0.043507
507.000000	0.044265
506.000000	0.045211
505.000000	0.046145
504.000000	0.047489
503.000000	0.048164
502.000000	0.049501
501.000000	0.050551
500.000000	0.051851
499.000000	0.052454
498.000000	0.053062
497.000000	0.053656
496.000000	0.054190
495.000000	0.054851
494.000000	0.054742
493.000000	0.055308
492.000000	0.055473
491.000000	0.055712
490.000000	0.055692
489.000000	0.056382
488.000000	0.056077
487.000000	0.055626
486.000000	0.056027
485.000000	0.056071
484.000000	0.055380
483.000000	0.055626
482.000000	0.055306
481.000000	0.055617
480.000000	0.055036
479.000000	0.055131
478.000000	0.054988
477.000000	0.056240
476.000000	0.056641
475.000000	0.056827
474.000000	0.057676
473.000000	0.058488
472.000000	0.058965
471.000000	0.060433
470.000000	0.061267
469.000000	0.061970
468.000000	0.062965
467.000000	0.063714
466.000000	0.064670
465.000000	0.065390
464.000000	0.066579
463.000000	0.067577
462.000000	0.068294
461.000000	0.068792
460.000000	0.069040
459.000000	0.069931
458.000000	0.070349
457.000000	0.070857
456.000000	0.071458
455.000000	0.071971
454.000000	0.072346
453.000000	0.073338
452.000000	0.074284
451.000000	0.074887
450.000000	0.076034
449.000000	0.076913
448.000000	0.077793
447.000000	0.079303
446.000000	0.080104
445.000000	0.081227
444.000000	0.082744
443.000000	0.083440
442.000000	0.083924
441.000000	0.084902
440.000000	0.085260
439.000000	0.085494
438.000000	0.085977
437.000000	0.085724
436.000000	0.085362
435.000000	0.085034
434.000000	0.084826
433.000000	0.084810
432.000000	0.084305
431.000000	0.083586
430.000000	0.083312
429.000000	0.082830
428.000000	0.082221
427.000000	0.081820
426.000000	0.081171
425.000000	0.080760
424.000000	0.080725
423.000000	0.080708
422.000000	0.080447
421.000000	0.080068
420.000000	0.080030
419.000000	0.080061
418.000000	0.080535
417.000000	0.079881
416.000000	0.078950
415.000000	0.078649
414.000000	0.078129
413.000000	0.077461
412.000000	0.076547
411.000000	0.075908
410.000000	0.074842
409.000000	0.073658
408.000000	0.072655
407.000000	0.071460
406.000000	0.070788
405.000000	0.070026
404.000000	0.068560
403.000000	0.067273
402.000000	0.066907
401.000000	0.066608
400.000000	0.065504
399.000000	0.064678
398.000000	0.064489
397.000000	0.063853
396.000000	0.064099
395.000000	0.063703
394.000000	0.062891
393.000000	0.063076
392.000000	0.062655
391.000000	0.061979
390.000000	0.061690
389.000000	0.061474
388.000000	0.061135
387.000000	0.060704
386.000000	0.059549
385.000000	0.059352
384.000000	0.058786
383.000000	0.058778
382.000000	0.057930
381.000000	0.057256
380.000000	0.056632
379.000000	0.055770
378.000000	0.053041
377.000000	0.051036
376.000000	0.048754
375.000000	0.049811
374.000000	0.048309
373.000000	0.047898
372.000000	0.047357
371.000000	0.047065
370.000000	0.046189
369.000000	0.045077
368.000000	0.042357
367.000000	0.041975
366.000000	0.042110
365.000000	0.042503
364.000000	0.041700
363.000000	0.040117
362.000000	0.040308
361.000000	0.039752
360.000000	0.040644
359.000000	0.041892
358.000000	0.039754
357.000000	0.040015
356.000000	0.038543
355.000000	0.038518
354.000000	0.036760
353.000000	0.039568
352.000000	0.038278
351.000000	0.040513
350.000000	0.041052
349.000000	0.037891
348.000000	0.038690
347.000000	0.037210
346.000000	0.039853
345.000000	0.040562
344.000000	0.042197
343.000000	0.041636
342.000000	0.039898
341.000000	0.039818
340.000000	0.041693
339.000000	0.042875
338.000000	0.041138
337.000000	0.041437
336.000000	0.043469
335.000000	0.044981
334.000000	0.042490
333.000000	0.043235
332.000000	0.041555
331.000000	0.042518
330.000000	0.041272
329.000000	0.042598
328.000000	0.041089
327.000000	0.040482
326.000000	0.044304
325.000000	0.040256
324.000000	0.039404
323.000000	0.039793
322.000000	0.040659
321.000000	0.045871
320.000000	0.045325
319.000000	0.043774
318.000000	0.042304
317.000000	0.042567
316.000000	0.045417
315.000000	0.045353
314.000000	0.044774
313.000000	0.047862
312.000000	0.047216
311.000000	0.049033
310.000000	0.050578
309.000000	0.051962
308.000000	0.054326
307.000000	0.055421
306.000000	0.056510
305.000000	0.058089
304.000000	0.060629
303.000000	0.062800
302.000000	0.068439
301.000000	0.071599
300.000000	0.075144
