PE UV       SUBTECH     SPECTRUM    ASCII       PEDS        4.00        
   -1
PETIT_06.Sample.Raw.asc
20/12/14
13:20:41.00
20/12/14
13:20:41.00
CNRS
RCC4212_A_DM
300.000000
1
Lambda 850
850L1011221
PerkinElmer UV WinLab 6.0.3.0730 / 1.61.00 Lambda 800

0
0
2
0
0
UV/VIS
1
1
1
RBeamAtt,SBeamAtt,150mm sphere / downward view
0
0
0
0
Fix
 
0
0.2
0
0
0
 
 
 
0
 
0
319.2
0
Front
50
 
S:100 R:100
 
0
0
0
 
0
 
 
 
0
 
 
0
0
0
0
0
 
 
 
 
0
0


#HDR
-1
-1
#GR
nm
A
1.0
0.0
800.000000
-1.000000
501
8
0.079716
-0.014119
#DATA
800.000000	-0.013273
799.000000	-0.012623
798.000000	-0.011983
797.000000	-0.013523
796.000000	-0.012669
795.000000	-0.012471
794.000000	-0.013196
793.000000	-0.012984
792.000000	-0.013421
791.000000	-0.012355
790.000000	-0.012662
789.000000	-0.013328
788.000000	-0.012382
787.000000	-0.012886
786.000000	-0.013686
785.000000	-0.012344
784.000000	-0.012537
783.000000	-0.012651
782.000000	-0.012909
781.000000	-0.013410
780.000000	-0.012321
779.000000	-0.013617
778.000000	-0.012538
777.000000	-0.012599
776.000000	-0.014119
775.000000	-0.012353
774.000000	-0.012100
773.000000	-0.010856
772.000000	-0.012199
771.000000	-0.012592
770.000000	-0.011937
769.000000	-0.013300
768.000000	-0.012816
767.000000	-0.013035
766.000000	-0.011935
765.000000	-0.012456
764.000000	-0.011728
763.000000	-0.012268
762.000000	-0.012279
761.000000	-0.011696
760.000000	-0.012236
759.000000	-0.012985
758.000000	-0.012183
757.000000	-0.012516
756.000000	-0.012028
755.000000	-0.012906
754.000000	-0.013161
753.000000	-0.013116
752.000000	-0.012594
751.000000	-0.013099
750.000000	-0.012360
749.000000	-0.012566
748.000000	-0.012830
747.000000	-0.013582
746.000000	-0.013191
745.000000	-0.012504
744.000000	-0.012114
743.000000	-0.012071
742.000000	-0.012252
741.000000	-0.012913
740.000000	-0.013071
739.000000	-0.012506
738.000000	-0.012402
737.000000	-0.012711
736.000000	-0.012851
735.000000	-0.012996
734.000000	-0.013069
733.000000	-0.012736
732.000000	-0.013599
731.000000	-0.013367
730.000000	-0.013585
729.000000	-0.013722
728.000000	-0.013183
727.000000	-0.013507
726.000000	-0.013424
725.000000	-0.013569
724.000000	-0.013064
723.000000	-0.013716
722.000000	-0.013911
721.000000	-0.013350
720.000000	-0.013116
719.000000	-0.013468
718.000000	-0.014101
717.000000	-0.013635
716.000000	-0.013311
715.000000	-0.013748
714.000000	-0.013566
713.000000	-0.013004
712.000000	-0.013119
711.000000	-0.013047
710.000000	-0.012978
709.000000	-0.012866
708.000000	-0.013051
707.000000	-0.012879
706.000000	-0.012805
705.000000	-0.011943
704.000000	-0.011531
703.000000	-0.011239
702.000000	-0.010728
701.000000	-0.010184
700.000000	-0.009355
699.000000	-0.008237
698.000000	-0.007049
697.000000	-0.006309
696.000000	-0.004789
695.000000	-0.002461
694.000000	-0.000667
693.000000	0.001619
692.000000	0.003980
691.000000	0.006445
690.000000	0.010251
689.000000	0.013446
688.000000	0.016787
687.000000	0.020455
686.000000	0.024053
685.000000	0.028038
684.000000	0.031504
683.000000	0.034761
682.000000	0.037745
681.000000	0.040373
680.000000	0.043170
679.000000	0.045824
678.000000	0.047985
677.000000	0.049446
676.000000	0.050640
675.000000	0.051549
674.000000	0.051310
673.000000	0.050635
672.000000	0.049925
671.000000	0.048376
670.000000	0.046163
669.000000	0.043894
668.000000	0.041392
667.000000	0.038461
666.000000	0.035273
665.000000	0.032211
664.000000	0.029304
663.000000	0.026557
662.000000	0.023311
661.000000	0.020417
660.000000	0.017586
659.000000	0.015028
658.000000	0.012778
657.000000	0.010755
656.000000	0.009510
655.000000	0.007915
654.000000	0.006517
653.000000	0.005326
652.000000	0.004401
651.000000	0.004207
650.000000	0.003633
649.000000	0.002964
648.000000	0.002997
647.000000	0.002592
646.000000	0.002654
645.000000	0.002909
644.000000	0.003169
643.000000	0.003632
642.000000	0.003988
641.000000	0.004087
640.000000	0.004771
639.000000	0.005142
638.000000	0.005425
637.000000	0.005434
636.000000	0.005462
635.000000	0.005875
634.000000	0.006109
633.000000	0.006200
632.000000	0.005994
631.000000	0.005712
630.000000	0.005426
629.000000	0.005398
628.000000	0.004889
627.000000	0.005063
626.000000	0.005057
625.000000	0.004799
624.000000	0.005071
623.000000	0.004896
622.000000	0.004702
621.000000	0.003997
620.000000	0.004190
619.000000	0.003994
618.000000	0.003672
617.000000	0.003381
616.000000	0.002663
615.000000	0.002600
614.000000	0.002760
613.000000	0.002207
612.000000	0.001417
611.000000	0.001226
610.000000	0.000104
609.000000	-0.000173
608.000000	-0.000210
607.000000	-0.000724
606.000000	-0.001353
605.000000	-0.001649
604.000000	-0.001367
603.000000	-0.001707
602.000000	-0.001820
601.000000	-0.001694
600.000000	-0.001610
599.000000	-0.001218
598.000000	-0.000766
597.000000	-0.001545
596.000000	-0.000150
595.000000	-0.000267
594.000000	0.000092
593.000000	-0.000138
592.000000	-0.000017
591.000000	0.000111
590.000000	0.000756
589.000000	0.000876
588.000000	0.000965
587.000000	0.001015
586.000000	0.001190
585.000000	0.001021
584.000000	0.001230
583.000000	0.000878
582.000000	0.001059
581.000000	0.001146
580.000000	0.001243
579.000000	0.001207
578.000000	0.001129
577.000000	0.001448
576.000000	0.000874
575.000000	0.001657
574.000000	0.001693
573.000000	0.001717
572.000000	0.002011
571.000000	0.002043
570.000000	0.002318
569.000000	0.002636
568.000000	0.003200
567.000000	0.003684
566.000000	0.003713
565.000000	0.004124
564.000000	0.004852
563.000000	0.005650
562.000000	0.006874
561.000000	0.007021
560.000000	0.007526
559.000000	0.008729
558.000000	0.008852
557.000000	0.009377
556.000000	0.010839
555.000000	0.011446
554.000000	0.012056
553.000000	0.012765
552.000000	0.013545
551.000000	0.014257
550.000000	0.015208
549.000000	0.015547
548.000000	0.016166
547.000000	0.018139
546.000000	0.018325
545.000000	0.018631
544.000000	0.019242
543.000000	0.019713
542.000000	0.020190
541.000000	0.020739
540.000000	0.021512
539.000000	0.022124
538.000000	0.022830
537.000000	0.023404
536.000000	0.023922
535.000000	0.023805
534.000000	0.024732
533.000000	0.024316
532.000000	0.025273
531.000000	0.025489
530.000000	0.026229
529.000000	0.026301
528.000000	0.026871
527.000000	0.027357
526.000000	0.028050
525.000000	0.028384
524.000000	0.028348
523.000000	0.028882
522.000000	0.028295
521.000000	0.029878
520.000000	0.029936
519.000000	0.030444
518.000000	0.030789
517.000000	0.030986
516.000000	0.031645
515.000000	0.032530
514.000000	0.032274
513.000000	0.033371
512.000000	0.033962
511.000000	0.034713
510.000000	0.035270
509.000000	0.036113
508.000000	0.036951
507.000000	0.037453
506.000000	0.038140
505.000000	0.038466
504.000000	0.039611
503.000000	0.040658
502.000000	0.041668
501.000000	0.042568
500.000000	0.042940
499.000000	0.043597
498.000000	0.044073
497.000000	0.044970
496.000000	0.045516
495.000000	0.045789
494.000000	0.045962
493.000000	0.046565
492.000000	0.047021
491.000000	0.047215
490.000000	0.047071
489.000000	0.046969
488.000000	0.047414
487.000000	0.047500
486.000000	0.048077
485.000000	0.047994
484.000000	0.047767
483.000000	0.048112
482.000000	0.048598
481.000000	0.048621
480.000000	0.048605
479.000000	0.048943
478.000000	0.049718
477.000000	0.050631
476.000000	0.051336
475.000000	0.051754
474.000000	0.052970
473.000000	0.054566
472.000000	0.055499
471.000000	0.056464
470.000000	0.057569
469.000000	0.058320
468.000000	0.059593
467.000000	0.060158
466.000000	0.061030
465.000000	0.061948
464.000000	0.063062
463.000000	0.063952
462.000000	0.064225
461.000000	0.064434
460.000000	0.064338
459.000000	0.064978
458.000000	0.065195
457.000000	0.065710
456.000000	0.066072
455.000000	0.066188
454.000000	0.065894
453.000000	0.066243
452.000000	0.067238
451.000000	0.067919
450.000000	0.068866
449.000000	0.069802
448.000000	0.070756
447.000000	0.071814
446.000000	0.072873
445.000000	0.074202
444.000000	0.075458
443.000000	0.076319
442.000000	0.077350
441.000000	0.078242
440.000000	0.078529
439.000000	0.079292
438.000000	0.079716
437.000000	0.079279
436.000000	0.078883
435.000000	0.078365
434.000000	0.077807
433.000000	0.077481
432.000000	0.076681
431.000000	0.075626
430.000000	0.075294
429.000000	0.074630
428.000000	0.073479
427.000000	0.072516
426.000000	0.071640
425.000000	0.070906
424.000000	0.070645
423.000000	0.070523
422.000000	0.069766
421.000000	0.069273
420.000000	0.069359
419.000000	0.068794
418.000000	0.068320
417.000000	0.068160
416.000000	0.067578
415.000000	0.066755
414.000000	0.065556
413.000000	0.064726
412.000000	0.064252
411.000000	0.063260
410.000000	0.061416
409.000000	0.060346
408.000000	0.059538
407.000000	0.058455
406.000000	0.057583
405.000000	0.056011
404.000000	0.054519
403.000000	0.053090
402.000000	0.051751
401.000000	0.050943
400.000000	0.050443
399.000000	0.049689
398.000000	0.049136
397.000000	0.048706
396.000000	0.048459
395.000000	0.048052
394.000000	0.047588
393.000000	0.046861
392.000000	0.046209
391.000000	0.045829
390.000000	0.045560
389.000000	0.045264
388.000000	0.044951
387.000000	0.044176
386.000000	0.042810
385.000000	0.042357
384.000000	0.042341
383.000000	0.041930
382.000000	0.040296
381.000000	0.040079
380.000000	0.039960
379.000000	0.038564
378.000000	0.037468
377.000000	0.034014
376.000000	0.032361
375.000000	0.034001
374.000000	0.032767
373.000000	0.031780
372.000000	0.030625
371.000000	0.029671
370.000000	0.028759
369.000000	0.028268
368.000000	0.025600
367.000000	0.026296
366.000000	0.025749
365.000000	0.024115
364.000000	0.025160
363.000000	0.024322
362.000000	0.024046
361.000000	0.023508
360.000000	0.024071
359.000000	0.023722
358.000000	0.022147
357.000000	0.022976
356.000000	0.022671
355.000000	0.022785
354.000000	0.021673
353.000000	0.022347
352.000000	0.021273
351.000000	0.022734
350.000000	0.022892
349.000000	0.019861
348.000000	0.022671
347.000000	0.021253
346.000000	0.023416
345.000000	0.022120
344.000000	0.024238
343.000000	0.022917
342.000000	0.024167
341.000000	0.022997
340.000000	0.024431
339.000000	0.026463
338.000000	0.022964
337.000000	0.026098
336.000000	0.025764
335.000000	0.025517
334.000000	0.026140
333.000000	0.024787
332.000000	0.025190
331.000000	0.025122
330.000000	0.023074
329.000000	0.023195
328.000000	0.024014
327.000000	0.023388
326.000000	0.024055
325.000000	0.026919
324.000000	0.024263
323.000000	0.025135
322.000000	0.027191
321.000000	0.030712
320.000000	0.027383
319.000000	0.028108
318.000000	0.027974
317.000000	0.028513
316.000000	0.030133
315.000000	0.030470
314.000000	0.031193
313.000000	0.032735
312.000000	0.032654
311.000000	0.035354
310.000000	0.037763
309.000000	0.039379
308.000000	0.041011
307.000000	0.041940
306.000000	0.044735
305.000000	0.046276
304.000000	0.048345
303.000000	0.050894
302.000000	0.056803
301.000000	0.060050
300.000000	0.063665
