PE UV       SUBTECH     SPECTRUM    ASCII       PEDS        4.00        
   -1
PETIT_08.Sample.Raw.asc
20/12/14
13:28:13.00
20/12/14
13:28:13.00
CNRS
RCC3006_A_DM
300.000000
1
Lambda 850
850L1011221
PerkinElmer UV WinLab 6.0.3.0730 / 1.61.00 Lambda 800

0
0
2
0
0
UV/VIS
1
1
1
RBeamAtt,SBeamAtt,150mm sphere / downward view
0
0
0
0
Fix
 
0
0.2
0
0
0
 
 
 
0
 
0
319.2
0
Front
50
 
S:100 R:100
 
0
0
0
 
0
 
 
 
0
 
 
0
0
0
0
0
 
 
 
 
0
0


#HDR
-1
-1
#GR
nm
A
1.0
0.0
800.000000
-1.000000
501
8
0.105606
-0.014041
#DATA
800.000000	-0.012821
799.000000	-0.011920
798.000000	-0.012455
797.000000	-0.013315
796.000000	-0.012232
795.000000	-0.011591
794.000000	-0.012388
793.000000	-0.012970
792.000000	-0.013530
791.000000	-0.013442
790.000000	-0.011667
789.000000	-0.013638
788.000000	-0.012958
787.000000	-0.012550
786.000000	-0.012189
785.000000	-0.012405
784.000000	-0.011693
783.000000	-0.012434
782.000000	-0.012343
781.000000	-0.012896
780.000000	-0.011593
779.000000	-0.013338
778.000000	-0.011814
777.000000	-0.012273
776.000000	-0.013277
775.000000	-0.012182
774.000000	-0.011720
773.000000	-0.012266
772.000000	-0.011985
771.000000	-0.011363
770.000000	-0.012446
769.000000	-0.013631
768.000000	-0.013094
767.000000	-0.012900
766.000000	-0.012277
765.000000	-0.011785
764.000000	-0.012266
763.000000	-0.013102
762.000000	-0.011989
761.000000	-0.011053
760.000000	-0.013429
759.000000	-0.013416
758.000000	-0.011861
757.000000	-0.012399
756.000000	-0.012552
755.000000	-0.012345
754.000000	-0.013975
753.000000	-0.012894
752.000000	-0.012744
751.000000	-0.013124
750.000000	-0.013252
749.000000	-0.013034
748.000000	-0.012666
747.000000	-0.013047
746.000000	-0.012493
745.000000	-0.012371
744.000000	-0.012096
743.000000	-0.012883
742.000000	-0.012626
741.000000	-0.012728
740.000000	-0.012774
739.000000	-0.012539
738.000000	-0.012291
737.000000	-0.012236
736.000000	-0.012429
735.000000	-0.012934
734.000000	-0.012857
733.000000	-0.012843
732.000000	-0.013682
731.000000	-0.013602
730.000000	-0.013720
729.000000	-0.013373
728.000000	-0.012822
727.000000	-0.013001
726.000000	-0.013055
725.000000	-0.013306
724.000000	-0.013332
723.000000	-0.013600
722.000000	-0.013270
721.000000	-0.013447
720.000000	-0.012817
719.000000	-0.013217
718.000000	-0.014041
717.000000	-0.013692
716.000000	-0.013674
715.000000	-0.013887
714.000000	-0.013524
713.000000	-0.013492
712.000000	-0.013451
711.000000	-0.013222
710.000000	-0.013341
709.000000	-0.013655
708.000000	-0.013515
707.000000	-0.013006
706.000000	-0.013055
705.000000	-0.012134
704.000000	-0.012692
703.000000	-0.012701
702.000000	-0.011556
701.000000	-0.011236
700.000000	-0.011313
699.000000	-0.010524
698.000000	-0.009893
697.000000	-0.009628
696.000000	-0.008314
695.000000	-0.006637
694.000000	-0.005307
693.000000	-0.003511
692.000000	-0.001905
691.000000	0.000120
690.000000	0.003012
689.000000	0.005718
688.000000	0.008484
687.000000	0.011260
686.000000	0.013906
685.000000	0.016600
684.000000	0.019103
683.000000	0.021841
682.000000	0.024191
681.000000	0.026113
680.000000	0.027864
679.000000	0.029460
678.000000	0.031016
677.000000	0.032124
676.000000	0.032898
675.000000	0.033200
674.000000	0.032969
673.000000	0.032714
672.000000	0.032429
671.000000	0.031638
670.000000	0.030626
669.000000	0.029427
668.000000	0.027687
667.000000	0.026106
666.000000	0.023924
665.000000	0.021480
664.000000	0.019345
663.000000	0.017194
662.000000	0.015272
661.000000	0.013381
660.000000	0.011460
659.000000	0.009712
658.000000	0.008075
657.000000	0.006696
656.000000	0.005748
655.000000	0.004896
654.000000	0.004385
653.000000	0.003876
652.000000	0.003313
651.000000	0.003140
650.000000	0.002819
649.000000	0.002379
648.000000	0.003099
647.000000	0.002382
646.000000	0.002085
645.000000	0.002236
644.000000	0.002290
643.000000	0.002321
642.000000	0.002145
641.000000	0.002342
640.000000	0.002374
639.000000	0.002478
638.000000	0.002760
637.000000	0.002335
636.000000	0.001828
635.000000	0.002097
634.000000	0.002578
633.000000	0.002333
632.000000	0.002069
631.000000	0.002350
630.000000	0.002160
629.000000	0.002019
628.000000	0.001517
627.000000	0.001845
626.000000	0.001922
625.000000	0.001716
624.000000	0.001649
623.000000	0.001624
622.000000	0.001751
621.000000	0.000857
620.000000	0.000890
619.000000	0.001175
618.000000	0.000664
617.000000	0.000259
616.000000	0.000044
615.000000	0.000045
614.000000	0.000088
613.000000	-0.000159
612.000000	-0.000761
611.000000	-0.001052
610.000000	-0.001742
609.000000	-0.001771
608.000000	-0.001766
607.000000	-0.002326
606.000000	-0.002445
605.000000	-0.002824
604.000000	-0.002431
603.000000	-0.002580
602.000000	-0.002368
601.000000	-0.001956
600.000000	-0.001971
599.000000	-0.001524
598.000000	-0.001249
597.000000	-0.001756
596.000000	-0.000522
595.000000	-0.000633
594.000000	-0.000354
593.000000	-0.000379
592.000000	-0.000709
591.000000	-0.000383
590.000000	-0.000053
589.000000	-0.000119
588.000000	-0.000254
587.000000	-0.000237
586.000000	-0.000359
585.000000	-0.000481
584.000000	-0.000444
583.000000	-0.000876
582.000000	-0.000648
581.000000	-0.000610
580.000000	-0.000625
579.000000	-0.000472
578.000000	-0.000980
577.000000	-0.000516
576.000000	-0.001025
575.000000	-0.000422
574.000000	0.000098
573.000000	0.000120
572.000000	0.000110
571.000000	0.000356
570.000000	0.000777
569.000000	0.001144
568.000000	0.001625
567.000000	0.001669
566.000000	0.002204
565.000000	0.002523
564.000000	0.003197
563.000000	0.004238
562.000000	0.005293
561.000000	0.005600
560.000000	0.006219
559.000000	0.007257
558.000000	0.007755
557.000000	0.008244
556.000000	0.009179
555.000000	0.010142
554.000000	0.010615
553.000000	0.011670
552.000000	0.012199
551.000000	0.013320
550.000000	0.013944
549.000000	0.014599
548.000000	0.014912
547.000000	0.016539
546.000000	0.016914
545.000000	0.017197
544.000000	0.017836
543.000000	0.018774
542.000000	0.018965
541.000000	0.019088
540.000000	0.020266
539.000000	0.020934
538.000000	0.021601
537.000000	0.022228
536.000000	0.022952
535.000000	0.022879
534.000000	0.023722
533.000000	0.023386
532.000000	0.024378
531.000000	0.024831
530.000000	0.025147
529.000000	0.025756
528.000000	0.025963
527.000000	0.026367
526.000000	0.027088
525.000000	0.027400
524.000000	0.027655
523.000000	0.027383
522.000000	0.027222
521.000000	0.028404
520.000000	0.028365
519.000000	0.029114
518.000000	0.029355
517.000000	0.029033
516.000000	0.029299
515.000000	0.030113
514.000000	0.029747
513.000000	0.030489
512.000000	0.031151
511.000000	0.031366
510.000000	0.031972
509.000000	0.032207
508.000000	0.032838
507.000000	0.033430
506.000000	0.033562
505.000000	0.034109
504.000000	0.034900
503.000000	0.035540
502.000000	0.036136
501.000000	0.037172
500.000000	0.037774
499.000000	0.038093
498.000000	0.038703
497.000000	0.039058
496.000000	0.039895
495.000000	0.040626
494.000000	0.040599
493.000000	0.040807
492.000000	0.041476
491.000000	0.041461
490.000000	0.041971
489.000000	0.042078
488.000000	0.042567
487.000000	0.042679
486.000000	0.043291
485.000000	0.043480
484.000000	0.043873
483.000000	0.044461
482.000000	0.044598
481.000000	0.045055
480.000000	0.045190
479.000000	0.045254
478.000000	0.045738
477.000000	0.047238
476.000000	0.047380
475.000000	0.047896
474.000000	0.048494
473.000000	0.048757
472.000000	0.049077
471.000000	0.049809
470.000000	0.050331
469.000000	0.050636
468.000000	0.050915
467.000000	0.051130
466.000000	0.051215
465.000000	0.051396
464.000000	0.051913
463.000000	0.051981
462.000000	0.052054
461.000000	0.052242
460.000000	0.052013
459.000000	0.052189
458.000000	0.051890
457.000000	0.051940
456.000000	0.052354
455.000000	0.051736
454.000000	0.051395
453.000000	0.051875
452.000000	0.051540
451.000000	0.051564
450.000000	0.052055
449.000000	0.052457
448.000000	0.052769
447.000000	0.053246
446.000000	0.053609
445.000000	0.053939
444.000000	0.054391
443.000000	0.055024
442.000000	0.055418
441.000000	0.055446
440.000000	0.055459
439.000000	0.055859
438.000000	0.056450
437.000000	0.056722
436.000000	0.056178
435.000000	0.055901
434.000000	0.055931
433.000000	0.055543
432.000000	0.055362
431.000000	0.054999
430.000000	0.054523
429.000000	0.054099
428.000000	0.053459
427.000000	0.053077
426.000000	0.052378
425.000000	0.052170
424.000000	0.052617
423.000000	0.052691
422.000000	0.052745
421.000000	0.052563
420.000000	0.052379
419.000000	0.052666
418.000000	0.052776
417.000000	0.052316
416.000000	0.051901
415.000000	0.051632
414.000000	0.051572
413.000000	0.051131
412.000000	0.050668
411.000000	0.050519
410.000000	0.049083
409.000000	0.047995
408.000000	0.047664
407.000000	0.046546
406.000000	0.045770
405.000000	0.044838
404.000000	0.044112
403.000000	0.043453
402.000000	0.042846
401.000000	0.042132
400.000000	0.041816
399.000000	0.041174
398.000000	0.041074
397.000000	0.040711
396.000000	0.040810
395.000000	0.041129
394.000000	0.040965
393.000000	0.040912
392.000000	0.040641
391.000000	0.041405
390.000000	0.041392
389.000000	0.041652
388.000000	0.041801
387.000000	0.042567
386.000000	0.042968
385.000000	0.042489
384.000000	0.042552
383.000000	0.043479
382.000000	0.043789
381.000000	0.044219
380.000000	0.044863
379.000000	0.044721
378.000000	0.044431
377.000000	0.044006
376.000000	0.043966
375.000000	0.045918
374.000000	0.045706
373.000000	0.044822
372.000000	0.044330
371.000000	0.044416
370.000000	0.043774
369.000000	0.043943
368.000000	0.041972
367.000000	0.043473
366.000000	0.042816
365.000000	0.043435
364.000000	0.043521
363.000000	0.043453
362.000000	0.042877
361.000000	0.043491
360.000000	0.043180
359.000000	0.043937
358.000000	0.045164
357.000000	0.044570
356.000000	0.045481
355.000000	0.045544
354.000000	0.044072
353.000000	0.047582
352.000000	0.047231
351.000000	0.049631
350.000000	0.052411
349.000000	0.053595
348.000000	0.054260
347.000000	0.056622
346.000000	0.060661
345.000000	0.060115
344.000000	0.065390
343.000000	0.067461
342.000000	0.069991
341.000000	0.070037
340.000000	0.070525
339.000000	0.075527
338.000000	0.075368
337.000000	0.077570
336.000000	0.078766
335.000000	0.081980
334.000000	0.079361
333.000000	0.079108
332.000000	0.079602
331.000000	0.081071
330.000000	0.081965
329.000000	0.080191
328.000000	0.082383
327.000000	0.080516
326.000000	0.079459
325.000000	0.081005
324.000000	0.081705
323.000000	0.080194
322.000000	0.081095
321.000000	0.088380
320.000000	0.081816
319.000000	0.083318
318.000000	0.081561
317.000000	0.082983
316.000000	0.083704
315.000000	0.083469
314.000000	0.082365
313.000000	0.083825
312.000000	0.082158
311.000000	0.083825
310.000000	0.085230
309.000000	0.084009
308.000000	0.085986
307.000000	0.086215
306.000000	0.087461
305.000000	0.087182
304.000000	0.089015
303.000000	0.092847
302.000000	0.096176
301.000000	0.099898
300.000000	0.105606
