PE UV       SUBTECH     SPECTRUM    ASCII       PEDS        4.00        
   -1
PETIT_16.Sample.Raw.asc
20/12/14
14:12:58.00
20/12/14
14:12:58.00
CNRS
RCC0100_A_DM
300.000000
1
Lambda 850
850L1011221
PerkinElmer UV WinLab 6.0.3.0730 / 1.61.00 Lambda 800

0
0
2
0
0
UV/VIS
1
1
1
RBeamAtt,SBeamAtt,150mm sphere / downward view
0
0
0
0
Fix
 
0
0.2
0
0
0
 
 
 
0
 
0
319.2
0
Front
50
 
S:100 R:100
 
0
0
0
 
0
 
 
 
0
 
 
0
0
0
0
0
 
 
 
 
0
0


#HDR
-1
-1
#GR
nm
A
1.0
0.0
800.000000
-1.000000
501
8
0.127694
-0.014852
#DATA
800.000000	-0.013065
799.000000	-0.012937
798.000000	-0.012851
797.000000	-0.013447
796.000000	-0.012699
795.000000	-0.012576
794.000000	-0.013464
793.000000	-0.014044
792.000000	-0.014132
791.000000	-0.012713
790.000000	-0.012830
789.000000	-0.014427
788.000000	-0.014152
787.000000	-0.013492
786.000000	-0.013028
785.000000	-0.012142
784.000000	-0.012079
783.000000	-0.012153
782.000000	-0.013064
781.000000	-0.014118
780.000000	-0.012716
779.000000	-0.012841
778.000000	-0.011888
777.000000	-0.012077
776.000000	-0.014246
775.000000	-0.011928
774.000000	-0.012827
773.000000	-0.012513
772.000000	-0.012984
771.000000	-0.012306
770.000000	-0.011795
769.000000	-0.013267
768.000000	-0.013215
767.000000	-0.012672
766.000000	-0.012330
765.000000	-0.012891
764.000000	-0.012794
763.000000	-0.013097
762.000000	-0.013003
761.000000	-0.013135
760.000000	-0.013702
759.000000	-0.012748
758.000000	-0.012699
757.000000	-0.013131
756.000000	-0.013226
755.000000	-0.013136
754.000000	-0.014106
753.000000	-0.013211
752.000000	-0.012924
751.000000	-0.013565
750.000000	-0.014150
749.000000	-0.013533
748.000000	-0.012862
747.000000	-0.013552
746.000000	-0.013394
745.000000	-0.013155
744.000000	-0.012657
743.000000	-0.012623
742.000000	-0.012690
741.000000	-0.013566
740.000000	-0.013356
739.000000	-0.012969
738.000000	-0.012353
737.000000	-0.012787
736.000000	-0.012874
735.000000	-0.012684
734.000000	-0.012927
733.000000	-0.013051
732.000000	-0.013644
731.000000	-0.014032
730.000000	-0.014060
729.000000	-0.014160
728.000000	-0.014119
727.000000	-0.014275
726.000000	-0.013866
725.000000	-0.014663
724.000000	-0.013895
723.000000	-0.013704
722.000000	-0.014177
721.000000	-0.014852
720.000000	-0.014043
719.000000	-0.014132
718.000000	-0.014026
717.000000	-0.013994
716.000000	-0.013638
715.000000	-0.013740
714.000000	-0.013497
713.000000	-0.013479
712.000000	-0.013519
711.000000	-0.013860
710.000000	-0.013787
709.000000	-0.013695
708.000000	-0.013989
707.000000	-0.013569
706.000000	-0.013262
705.000000	-0.012805
704.000000	-0.013002
703.000000	-0.012755
702.000000	-0.011887
701.000000	-0.011583
700.000000	-0.010963
699.000000	-0.010056
698.000000	-0.009394
697.000000	-0.008648
696.000000	-0.007421
695.000000	-0.005375
694.000000	-0.003714
693.000000	-0.002254
692.000000	-0.000166
691.000000	0.002667
690.000000	0.006418
689.000000	0.010097
688.000000	0.013978
687.000000	0.018231
686.000000	0.022700
685.000000	0.027407
684.000000	0.032096
683.000000	0.036761
682.000000	0.041086
681.000000	0.044842
680.000000	0.048384
679.000000	0.051866
678.000000	0.054723
677.000000	0.056590
676.000000	0.057657
675.000000	0.058364
674.000000	0.057979
673.000000	0.056770
672.000000	0.055558
671.000000	0.053561
670.000000	0.050664
669.000000	0.047307
668.000000	0.043953
667.000000	0.040445
666.000000	0.036095
665.000000	0.031869
664.000000	0.028283
663.000000	0.025251
662.000000	0.021709
661.000000	0.018804
660.000000	0.016443
659.000000	0.013824
658.000000	0.012003
657.000000	0.010739
656.000000	0.009616
655.000000	0.008009
654.000000	0.007020
653.000000	0.006545
652.000000	0.005945
651.000000	0.005592
650.000000	0.005505
649.000000	0.005706
648.000000	0.006209
647.000000	0.006306
646.000000	0.006910
645.000000	0.007596
644.000000	0.008283
643.000000	0.008876
642.000000	0.009390
641.000000	0.009800
640.000000	0.010129
639.000000	0.009970
638.000000	0.009906
637.000000	0.009896
636.000000	0.009670
635.000000	0.009633
634.000000	0.009509
633.000000	0.009085
632.000000	0.008289
631.000000	0.008198
630.000000	0.007884
629.000000	0.007439
628.000000	0.006776
627.000000	0.006826
626.000000	0.006448
625.000000	0.006195
624.000000	0.005852
623.000000	0.005803
622.000000	0.006099
621.000000	0.005773
620.000000	0.005379
619.000000	0.005303
618.000000	0.004665
617.000000	0.004525
616.000000	0.004821
615.000000	0.004672
614.000000	0.004620
613.000000	0.004525
612.000000	0.004606
611.000000	0.004658
610.000000	0.004042
609.000000	0.004269
608.000000	0.004612
607.000000	0.004387
606.000000	0.004377
605.000000	0.004047
604.000000	0.004669
603.000000	0.004951
602.000000	0.005461
601.000000	0.006292
600.000000	0.006475
599.000000	0.006820
598.000000	0.007163
597.000000	0.007020
596.000000	0.007958
595.000000	0.007658
594.000000	0.008300
593.000000	0.007941
592.000000	0.007255
591.000000	0.007662
590.000000	0.007778
589.000000	0.007296
588.000000	0.006969
587.000000	0.006196
586.000000	0.005935
585.000000	0.005567
584.000000	0.005152
583.000000	0.004356
582.000000	0.004095
581.000000	0.003557
580.000000	0.003103
579.000000	0.002732
578.000000	0.001806
577.000000	0.001537
576.000000	0.001006
575.000000	0.000758
574.000000	0.001103
573.000000	0.000446
572.000000	0.000161
571.000000	0.000256
570.000000	0.000049
569.000000	-0.000387
568.000000	0.000002
567.000000	0.000083
566.000000	-0.000276
565.000000	0.000272
564.000000	0.000695
563.000000	0.000827
562.000000	0.001671
561.000000	0.002279
560.000000	0.002192
559.000000	0.003315
558.000000	0.003285
557.000000	0.003890
556.000000	0.004874
555.000000	0.005457
554.000000	0.005909
553.000000	0.006748
552.000000	0.007456
551.000000	0.008550
550.000000	0.009527
549.000000	0.010004
548.000000	0.010829
547.000000	0.012625
546.000000	0.012652
545.000000	0.013157
544.000000	0.014414
543.000000	0.015478
542.000000	0.016468
541.000000	0.016892
540.000000	0.018236
539.000000	0.019218
538.000000	0.020612
537.000000	0.021763
536.000000	0.022799
535.000000	0.023209
534.000000	0.024914
533.000000	0.024882
532.000000	0.026579
531.000000	0.027626
530.000000	0.028214
529.000000	0.029958
528.000000	0.031102
527.000000	0.031975
526.000000	0.033069
525.000000	0.034358
524.000000	0.035345
523.000000	0.036143
522.000000	0.036658
521.000000	0.038273
520.000000	0.039250
519.000000	0.040661
518.000000	0.041420
517.000000	0.042647
516.000000	0.043538
515.000000	0.045003
514.000000	0.045746
513.000000	0.046924
512.000000	0.048354
511.000000	0.049351
510.000000	0.050796
509.000000	0.051749
508.000000	0.053389
507.000000	0.055004
506.000000	0.056214
505.000000	0.057308
504.000000	0.059043
503.000000	0.060544
502.000000	0.062667
501.000000	0.064517
500.000000	0.066553
499.000000	0.068851
498.000000	0.071108
497.000000	0.073084
496.000000	0.075378
495.000000	0.077801
494.000000	0.080392
493.000000	0.082826
492.000000	0.085334
491.000000	0.087548
490.000000	0.089445
489.000000	0.091875
488.000000	0.094451
487.000000	0.096010
486.000000	0.098014
485.000000	0.099953
484.000000	0.100892
483.000000	0.102375
482.000000	0.104039
481.000000	0.105083
480.000000	0.105357
479.000000	0.106012
478.000000	0.107154
477.000000	0.107976
476.000000	0.108656
475.000000	0.109550
474.000000	0.110329
473.000000	0.111139
472.000000	0.111370
471.000000	0.112271
470.000000	0.113135
469.000000	0.113605
468.000000	0.113907
467.000000	0.114287
466.000000	0.114624
465.000000	0.115058
464.000000	0.115947
463.000000	0.115971
462.000000	0.116261
461.000000	0.116200
460.000000	0.116346
459.000000	0.116536
458.000000	0.116104
457.000000	0.116186
456.000000	0.115998
455.000000	0.116134
454.000000	0.115985
453.000000	0.115895
452.000000	0.115969
451.000000	0.116283
450.000000	0.117167
449.000000	0.117339
448.000000	0.117635
447.000000	0.119297
446.000000	0.120669
445.000000	0.121694
444.000000	0.122924
443.000000	0.123991
442.000000	0.125155
441.000000	0.126243
440.000000	0.126597
439.000000	0.127293
438.000000	0.127694
437.000000	0.127538
436.000000	0.126852
435.000000	0.125898
434.000000	0.124437
433.000000	0.122761
432.000000	0.121709
431.000000	0.120016
430.000000	0.118277
429.000000	0.116823
428.000000	0.114774
427.000000	0.113241
426.000000	0.111640
425.000000	0.109970
424.000000	0.109278
423.000000	0.108927
422.000000	0.108267
421.000000	0.107038
420.000000	0.106020
419.000000	0.105602
418.000000	0.105544
417.000000	0.104614
416.000000	0.103517
415.000000	0.102555
414.000000	0.102022
413.000000	0.100431
412.000000	0.098969
411.000000	0.097785
410.000000	0.095727
409.000000	0.094028
408.000000	0.092273
407.000000	0.089946
406.000000	0.088182
405.000000	0.086691
404.000000	0.084675
403.000000	0.082396
402.000000	0.080900
401.000000	0.079450
400.000000	0.078576
399.000000	0.077756
398.000000	0.076898
397.000000	0.075388
396.000000	0.074375
395.000000	0.073629
394.000000	0.072458
393.000000	0.071375
392.000000	0.069978
391.000000	0.069706
390.000000	0.069428
389.000000	0.068872
388.000000	0.067722
387.000000	0.066568
386.000000	0.065712
385.000000	0.064788
384.000000	0.063754
383.000000	0.063234
382.000000	0.061548
381.000000	0.060287
380.000000	0.058999
379.000000	0.057501
378.000000	0.056412
377.000000	0.054057
376.000000	0.049188
375.000000	0.051542
374.000000	0.052588
373.000000	0.049228
372.000000	0.048436
371.000000	0.046700
370.000000	0.045131
369.000000	0.044960
368.000000	0.043112
367.000000	0.041382
366.000000	0.041837
365.000000	0.041226
364.000000	0.041001
363.000000	0.039995
362.000000	0.039521
361.000000	0.037840
360.000000	0.038238
359.000000	0.039122
358.000000	0.037478
357.000000	0.037201
356.000000	0.036703
355.000000	0.036678
354.000000	0.036474
353.000000	0.036062
352.000000	0.035755
351.000000	0.036434
350.000000	0.036587
349.000000	0.036546
348.000000	0.035509
347.000000	0.035906
346.000000	0.037517
345.000000	0.035295
344.000000	0.038154
343.000000	0.037964
342.000000	0.037474
341.000000	0.039077
340.000000	0.039220
339.000000	0.041456
338.000000	0.039199
337.000000	0.039752
336.000000	0.038779
335.000000	0.039196
334.000000	0.037636
333.000000	0.040401
332.000000	0.039133
331.000000	0.038518
330.000000	0.039495
329.000000	0.039069
328.000000	0.038421
327.000000	0.036482
326.000000	0.038611
325.000000	0.041676
324.000000	0.038020
323.000000	0.036712
322.000000	0.040629
321.000000	0.043071
320.000000	0.041821
319.000000	0.039964
318.000000	0.038771
317.000000	0.041211
316.000000	0.041978
315.000000	0.043436
314.000000	0.042092
313.000000	0.045600
312.000000	0.043692
311.000000	0.048503
310.000000	0.049883
309.000000	0.050362
308.000000	0.053644
307.000000	0.054717
306.000000	0.056178
305.000000	0.057746
304.000000	0.060191
303.000000	0.065691
302.000000	0.067784
301.000000	0.074139
300.000000	0.077407
