PE UV       SUBTECH     SPECTRUM    ASCII       PEDS        4.00        
   -1
PETIT_05.Sample.Raw.asc
20/12/14
13:17:03.00
20/12/14
13:17:03.00
CNRS
RCC2379_A_D4
300.000000
1
Lambda 850
850L1011221
PerkinElmer UV WinLab 6.0.3.0730 / 1.61.00 Lambda 800

0
0
2
0
0
UV/VIS
1
1
1
RBeamAtt,SBeamAtt,150mm sphere / downward view
0
0
0
0
Fix
 
0
0.2
0
0
0
 
 
 
0
 
0
319.2
0
Front
50
 
S:100 R:100
 
0
0
0
 
0
 
 
 
0
 
 
0
0
0
0
0
 
 
 
 
0
0


#HDR
-1
-1
#GR
nm
A
1.0
0.0
800.000000
-1.000000
501
8
0.171804
-0.014126
#DATA
800.000000	-0.013591
799.000000	-0.012197
798.000000	-0.013742
797.000000	-0.012487
796.000000	-0.011526
795.000000	-0.013056
794.000000	-0.012414
793.000000	-0.012605
792.000000	-0.013787
791.000000	-0.013264
790.000000	-0.012628
789.000000	-0.013956
788.000000	-0.013758
787.000000	-0.012636
786.000000	-0.013262
785.000000	-0.012605
784.000000	-0.012521
783.000000	-0.013274
782.000000	-0.012522
781.000000	-0.013237
780.000000	-0.011920
779.000000	-0.012912
778.000000	-0.011698
777.000000	-0.011787
776.000000	-0.012680
775.000000	-0.012875
774.000000	-0.012779
773.000000	-0.011890
772.000000	-0.013088
771.000000	-0.012875
770.000000	-0.011694
769.000000	-0.012160
768.000000	-0.013393
767.000000	-0.012559
766.000000	-0.011636
765.000000	-0.011911
764.000000	-0.012364
763.000000	-0.012817
762.000000	-0.012944
761.000000	-0.012719
760.000000	-0.013103
759.000000	-0.012868
758.000000	-0.012683
757.000000	-0.013069
756.000000	-0.013405
755.000000	-0.012995
754.000000	-0.013290
753.000000	-0.013974
752.000000	-0.012877
751.000000	-0.012979
750.000000	-0.013128
749.000000	-0.013351
748.000000	-0.012322
747.000000	-0.012909
746.000000	-0.012807
745.000000	-0.012787
744.000000	-0.011867
743.000000	-0.011929
742.000000	-0.012357
741.000000	-0.012993
740.000000	-0.012249
739.000000	-0.012554
738.000000	-0.012391
737.000000	-0.012352
736.000000	-0.013015
735.000000	-0.012820
734.000000	-0.013053
733.000000	-0.013151
732.000000	-0.013528
731.000000	-0.013292
730.000000	-0.013553
729.000000	-0.013224
728.000000	-0.012921
727.000000	-0.013255
726.000000	-0.012890
725.000000	-0.013606
724.000000	-0.013518
723.000000	-0.013970
722.000000	-0.013913
721.000000	-0.013986
720.000000	-0.013461
719.000000	-0.013591
718.000000	-0.014080
717.000000	-0.013284
716.000000	-0.013505
715.000000	-0.013920
714.000000	-0.014019
713.000000	-0.013653
712.000000	-0.013271
711.000000	-0.013723
710.000000	-0.013540
709.000000	-0.014102
708.000000	-0.014126
707.000000	-0.014023
706.000000	-0.013762
705.000000	-0.012925
704.000000	-0.013483
703.000000	-0.013564
702.000000	-0.013432
701.000000	-0.013307
700.000000	-0.013326
699.000000	-0.013253
698.000000	-0.012943
697.000000	-0.013202
696.000000	-0.013220
695.000000	-0.012480
694.000000	-0.011995
693.000000	-0.011604
692.000000	-0.012168
691.000000	-0.012575
690.000000	-0.012369
689.000000	-0.011543
688.000000	-0.010914
687.000000	-0.010877
686.000000	-0.010740
685.000000	-0.010143
684.000000	-0.009928
683.000000	-0.009817
682.000000	-0.009503
681.000000	-0.009711
680.000000	-0.010204
679.000000	-0.010061
678.000000	-0.009276
677.000000	-0.009289
676.000000	-0.009476
675.000000	-0.009349
674.000000	-0.009825
673.000000	-0.009995
672.000000	-0.010106
671.000000	-0.010120
670.000000	-0.009977
669.000000	-0.009983
668.000000	-0.010300
667.000000	-0.010597
666.000000	-0.011008
665.000000	-0.011041
664.000000	-0.011148
663.000000	-0.011286
662.000000	-0.011468
661.000000	-0.011816
660.000000	-0.011907
659.000000	-0.011978
658.000000	-0.012328
657.000000	-0.012129
656.000000	-0.011877
655.000000	-0.012383
654.000000	-0.012546
653.000000	-0.012499
652.000000	-0.012604
651.000000	-0.012375
650.000000	-0.012418
649.000000	-0.012801
648.000000	-0.012491
647.000000	-0.012609
646.000000	-0.012595
645.000000	-0.012615
644.000000	-0.012791
643.000000	-0.012533
642.000000	-0.012354
641.000000	-0.012515
640.000000	-0.012484
639.000000	-0.012330
638.000000	-0.012504
637.000000	-0.012666
636.000000	-0.013017
635.000000	-0.012293
634.000000	-0.012117
633.000000	-0.012737
632.000000	-0.012678
631.000000	-0.012314
630.000000	-0.012259
629.000000	-0.012204
628.000000	-0.012623
627.000000	-0.012273
626.000000	-0.012116
625.000000	-0.012132
624.000000	-0.012172
623.000000	-0.012496
622.000000	-0.012481
621.000000	-0.012715
620.000000	-0.012257
619.000000	-0.012275
618.000000	-0.012539
617.000000	-0.012629
616.000000	-0.012438
615.000000	-0.012364
614.000000	-0.012042
613.000000	-0.011972
612.000000	-0.012238
611.000000	-0.012149
610.000000	-0.012765
609.000000	-0.012528
608.000000	-0.012264
607.000000	-0.012641
606.000000	-0.012561
605.000000	-0.013078
604.000000	-0.012850
603.000000	-0.012765
602.000000	-0.012526
601.000000	-0.012319
600.000000	-0.012555
599.000000	-0.012287
598.000000	-0.012342
597.000000	-0.012847
596.000000	-0.011874
595.000000	-0.012192
594.000000	-0.011958
593.000000	-0.012085
592.000000	-0.012670
591.000000	-0.012519
590.000000	-0.011997
589.000000	-0.012042
588.000000	-0.012234
587.000000	-0.012248
586.000000	-0.012447
585.000000	-0.012490
584.000000	-0.012105
583.000000	-0.012012
582.000000	-0.012084
581.000000	-0.011770
580.000000	-0.012009
579.000000	-0.011461
578.000000	-0.011840
577.000000	-0.011617
576.000000	-0.012110
575.000000	-0.011935
574.000000	-0.011185
573.000000	-0.011301
572.000000	-0.011396
571.000000	-0.011120
570.000000	-0.011360
569.000000	-0.011436
568.000000	-0.011092
567.000000	-0.010875
566.000000	-0.010895
565.000000	-0.010899
564.000000	-0.010472
563.000000	-0.010341
562.000000	-0.010297
561.000000	-0.010233
560.000000	-0.010372
559.000000	-0.009814
558.000000	-0.010000
557.000000	-0.009964
556.000000	-0.009863
555.000000	-0.009625
554.000000	-0.009592
553.000000	-0.009529
552.000000	-0.009623
551.000000	-0.008954
550.000000	-0.009332
549.000000	-0.009395
548.000000	-0.009348
547.000000	-0.007955
546.000000	-0.008594
545.000000	-0.008694
544.000000	-0.009068
543.000000	-0.008592
542.000000	-0.008285
541.000000	-0.008501
540.000000	-0.008177
539.000000	-0.007927
538.000000	-0.008115
537.000000	-0.007680
536.000000	-0.007426
535.000000	-0.007972
534.000000	-0.007427
533.000000	-0.008115
532.000000	-0.007474
531.000000	-0.007393
530.000000	-0.007223
529.000000	-0.007314
528.000000	-0.006645
527.000000	-0.006533
526.000000	-0.006038
525.000000	-0.006099
524.000000	-0.006154
523.000000	-0.005846
522.000000	-0.006384
521.000000	-0.005292
520.000000	-0.005420
519.000000	-0.004735
518.000000	-0.004624
517.000000	-0.004522
516.000000	-0.004205
515.000000	-0.004037
514.000000	-0.003997
513.000000	-0.003330
512.000000	-0.002727
511.000000	-0.002586
510.000000	-0.001847
509.000000	-0.001815
508.000000	-0.001807
507.000000	-0.000935
506.000000	-0.000659
505.000000	-0.000527
504.000000	-0.000071
503.000000	0.000459
502.000000	0.001255
501.000000	0.001806
500.000000	0.002120
499.000000	0.002878
498.000000	0.003477
497.000000	0.003641
496.000000	0.004039
495.000000	0.004282
494.000000	0.004450
493.000000	0.004986
492.000000	0.005362
491.000000	0.005312
490.000000	0.005767
489.000000	0.006335
488.000000	0.006752
487.000000	0.006635
486.000000	0.007034
485.000000	0.007569
484.000000	0.007747
483.000000	0.007959
482.000000	0.007643
481.000000	0.008473
480.000000	0.008151
479.000000	0.008329
478.000000	0.008277
477.000000	0.008745
476.000000	0.009227
475.000000	0.009114
474.000000	0.009434
473.000000	0.009905
472.000000	0.010194
471.000000	0.010775
470.000000	0.010889
469.000000	0.010822
468.000000	0.011140
467.000000	0.011416
466.000000	0.011676
465.000000	0.011971
464.000000	0.012671
463.000000	0.012940
462.000000	0.013163
461.000000	0.013369
460.000000	0.013216
459.000000	0.013560
458.000000	0.013851
457.000000	0.014044
456.000000	0.014396
455.000000	0.014573
454.000000	0.014502
453.000000	0.015085
452.000000	0.015739
451.000000	0.015914
450.000000	0.016453
449.000000	0.016821
448.000000	0.017016
447.000000	0.017919
446.000000	0.018522
445.000000	0.018967
444.000000	0.019227
443.000000	0.019358
442.000000	0.019629
441.000000	0.020315
440.000000	0.020954
439.000000	0.021392
438.000000	0.021877
437.000000	0.022630
436.000000	0.022763
435.000000	0.022937
434.000000	0.023486
433.000000	0.023560
432.000000	0.023874
431.000000	0.024353
430.000000	0.025172
429.000000	0.025716
428.000000	0.026070
427.000000	0.026778
426.000000	0.026955
425.000000	0.027417
424.000000	0.028250
423.000000	0.029349
422.000000	0.029954
421.000000	0.030291
420.000000	0.030889
419.000000	0.031565
418.000000	0.032620
417.000000	0.033229
416.000000	0.033980
415.000000	0.034563
414.000000	0.035245
413.000000	0.035974
412.000000	0.036861
411.000000	0.037835
410.000000	0.038178
409.000000	0.038484
408.000000	0.039071
407.000000	0.039827
406.000000	0.040181
405.000000	0.040930
404.000000	0.041641
403.000000	0.041927
402.000000	0.042836
401.000000	0.043781
400.000000	0.044711
399.000000	0.045395
398.000000	0.046502
397.000000	0.047342
396.000000	0.048319
395.000000	0.049155
394.000000	0.049580
393.000000	0.050892
392.000000	0.051833
391.000000	0.053014
390.000000	0.052967
389.000000	0.054136
388.000000	0.054908
387.000000	0.055220
386.000000	0.055773
385.000000	0.055944
384.000000	0.057868
383.000000	0.058706
382.000000	0.059096
381.000000	0.060139
380.000000	0.061520
379.000000	0.062183
378.000000	0.067002
377.000000	0.068391
376.000000	0.068409
375.000000	0.070868
374.000000	0.071820
373.000000	0.073240
372.000000	0.074747
371.000000	0.074817
370.000000	0.074541
369.000000	0.076121
368.000000	0.075384
367.000000	0.078135
366.000000	0.080821
365.000000	0.082511
364.000000	0.083265
363.000000	0.083566
362.000000	0.084644
361.000000	0.085692
360.000000	0.089411
359.000000	0.090492
358.000000	0.090561
357.000000	0.092611
356.000000	0.094188
355.000000	0.095746
354.000000	0.095419
353.000000	0.097415
352.000000	0.097611
351.000000	0.101322
350.000000	0.103020
349.000000	0.101958
348.000000	0.103541
347.000000	0.103501
346.000000	0.105130
345.000000	0.105651
344.000000	0.105659
343.000000	0.108175
342.000000	0.108322
341.000000	0.107610
340.000000	0.110771
339.000000	0.111890
338.000000	0.112818
337.000000	0.116541
336.000000	0.114920
335.000000	0.115851
334.000000	0.117869
333.000000	0.119333
332.000000	0.120544
331.000000	0.123216
330.000000	0.122037
329.000000	0.122225
328.000000	0.123216
327.000000	0.126060
326.000000	0.125284
325.000000	0.128174
324.000000	0.128019
323.000000	0.133175
322.000000	0.134401
321.000000	0.140288
320.000000	0.134430
319.000000	0.137235
318.000000	0.129223
317.000000	0.133143
316.000000	0.135743
315.000000	0.137362
314.000000	0.137011
313.000000	0.140319
312.000000	0.140548
311.000000	0.141955
310.000000	0.146837
309.000000	0.148994
308.000000	0.150184
307.000000	0.151785
306.000000	0.154639
305.000000	0.154850
304.000000	0.157927
303.000000	0.160584
302.000000	0.164755
301.000000	0.167794
300.000000	0.171804
