PE UV       SUBTECH     SPECTRUM    ASCII       PEDS        4.00        
   -1
PETIT_14.Sample.Raw.asc
20/12/14
14:01:03.00
20/12/14
14:01:03.00
CNRS
RCC1717_A_D2
300.000000
1
Lambda 850
850L1011221
PerkinElmer UV WinLab 6.0.3.0730 / 1.61.00 Lambda 800

0
0
2
0
0
UV/VIS
1
1
1
RBeamAtt,SBeamAtt,150mm sphere / downward view
0
0
0
0
Fix
 
0
0.2
0
0
0
 
 
 
0
 
0
319.2
0
Front
50
 
S:100 R:100
 
0
0
0
 
0
 
 
 
0
 
 
0
0
0
0
0
 
 
 
 
0
0


#HDR
-1
-1
#GR
nm
A
1.0
0.0
800.000000
-1.000000
501
8
0.059736
-0.014081
#DATA
800.000000	-0.012880
799.000000	-0.011118
798.000000	-0.012554
797.000000	-0.013110
796.000000	-0.011687
795.000000	-0.012384
794.000000	-0.012976
793.000000	-0.012824
792.000000	-0.013689
791.000000	-0.013051
790.000000	-0.012161
789.000000	-0.013184
788.000000	-0.012600
787.000000	-0.012508
786.000000	-0.012392
785.000000	-0.011979
784.000000	-0.011680
783.000000	-0.012618
782.000000	-0.012110
781.000000	-0.014081
780.000000	-0.012778
779.000000	-0.012790
778.000000	-0.011803
777.000000	-0.011833
776.000000	-0.013778
775.000000	-0.013187
774.000000	-0.012727
773.000000	-0.011962
772.000000	-0.013024
771.000000	-0.011445
770.000000	-0.012137
769.000000	-0.012649
768.000000	-0.012110
767.000000	-0.012551
766.000000	-0.011802
765.000000	-0.011494
764.000000	-0.011982
763.000000	-0.012510
762.000000	-0.012403
761.000000	-0.011995
760.000000	-0.013098
759.000000	-0.012576
758.000000	-0.012279
757.000000	-0.012065
756.000000	-0.012346
755.000000	-0.012497
754.000000	-0.013389
753.000000	-0.012477
752.000000	-0.012213
751.000000	-0.012935
750.000000	-0.013197
749.000000	-0.012752
748.000000	-0.012497
747.000000	-0.012642
746.000000	-0.012574
745.000000	-0.011937
744.000000	-0.011241
743.000000	-0.012126
742.000000	-0.011959
741.000000	-0.011895
740.000000	-0.011926
739.000000	-0.012471
738.000000	-0.011837
737.000000	-0.011700
736.000000	-0.012384
735.000000	-0.012406
734.000000	-0.012480
733.000000	-0.012428
732.000000	-0.012941
731.000000	-0.012610
730.000000	-0.012844
729.000000	-0.013072
728.000000	-0.013039
727.000000	-0.012766
726.000000	-0.012449
725.000000	-0.013133
724.000000	-0.012817
723.000000	-0.012475
722.000000	-0.012161
721.000000	-0.012083
720.000000	-0.012113
719.000000	-0.011736
718.000000	-0.011895
717.000000	-0.011686
716.000000	-0.011381
715.000000	-0.011042
714.000000	-0.010674
713.000000	-0.010008
712.000000	-0.010018
711.000000	-0.009242
710.000000	-0.008780
709.000000	-0.009024
708.000000	-0.008813
707.000000	-0.008072
706.000000	-0.007196
705.000000	-0.006514
704.000000	-0.006822
703.000000	-0.006579
702.000000	-0.005379
701.000000	-0.004858
700.000000	-0.004486
699.000000	-0.003652
698.000000	-0.003457
697.000000	-0.002444
696.000000	-0.001370
695.000000	-0.000490
694.000000	0.000833
693.000000	0.002433
692.000000	0.003235
691.000000	0.004501
690.000000	0.006519
689.000000	0.008029
688.000000	0.009716
687.000000	0.011511
686.000000	0.012974
685.000000	0.014433
684.000000	0.016183
683.000000	0.017808
682.000000	0.019155
681.000000	0.020272
680.000000	0.021632
679.000000	0.023136
678.000000	0.024147
677.000000	0.024482
676.000000	0.025170
675.000000	0.025947
674.000000	0.025794
673.000000	0.025458
672.000000	0.024990
671.000000	0.024051
670.000000	0.022732
669.000000	0.021426
668.000000	0.020190
667.000000	0.018281
666.000000	0.016547
665.000000	0.014829
664.000000	0.012970
663.000000	0.011145
662.000000	0.009454
661.000000	0.007764
660.000000	0.006342
659.000000	0.004895
658.000000	0.003550
657.000000	0.002903
656.000000	0.002368
655.000000	0.001275
654.000000	0.000422
653.000000	-0.000041
652.000000	-0.000596
651.000000	-0.000838
650.000000	-0.000982
649.000000	-0.000810
648.000000	-0.000510
647.000000	-0.000961
646.000000	-0.001037
645.000000	-0.000736
644.000000	-0.000831
643.000000	-0.000565
642.000000	-0.000267
641.000000	-0.000531
640.000000	-0.000217
639.000000	0.000102
638.000000	0.000566
637.000000	0.000420
636.000000	-0.000077
635.000000	0.000001
634.000000	-0.000180
633.000000	-0.000220
632.000000	-0.000076
631.000000	-0.000192
630.000000	-0.000551
629.000000	-0.000594
628.000000	-0.000996
627.000000	-0.000619
626.000000	-0.000512
625.000000	-0.000850
624.000000	-0.001163
623.000000	-0.001306
622.000000	-0.001303
621.000000	-0.002018
620.000000	-0.001974
619.000000	-0.002118
618.000000	-0.002007
617.000000	-0.002243
616.000000	-0.002643
615.000000	-0.003173
614.000000	-0.003126
613.000000	-0.003193
612.000000	-0.003834
611.000000	-0.003788
610.000000	-0.004524
609.000000	-0.004867
608.000000	-0.004451
607.000000	-0.004942
606.000000	-0.005294
605.000000	-0.005843
604.000000	-0.005561
603.000000	-0.005577
602.000000	-0.005481
601.000000	-0.005355
600.000000	-0.005600
599.000000	-0.005442
598.000000	-0.004935
597.000000	-0.005622
596.000000	-0.004448
595.000000	-0.004850
594.000000	-0.004307
593.000000	-0.004251
592.000000	-0.004398
591.000000	-0.004250
590.000000	-0.004051
589.000000	-0.003987
588.000000	-0.004107
587.000000	-0.004161
586.000000	-0.004139
585.000000	-0.004174
584.000000	-0.004272
583.000000	-0.004168
582.000000	-0.004363
581.000000	-0.004218
580.000000	-0.004252
579.000000	-0.004332
578.000000	-0.004340
577.000000	-0.004351
576.000000	-0.004728
575.000000	-0.004509
574.000000	-0.004146
573.000000	-0.004268
572.000000	-0.004302
571.000000	-0.004181
570.000000	-0.004014
569.000000	-0.004139
568.000000	-0.003704
567.000000	-0.003527
566.000000	-0.003609
565.000000	-0.003573
564.000000	-0.003278
563.000000	-0.002907
562.000000	-0.002018
561.000000	-0.001940
560.000000	-0.002079
559.000000	-0.000958
558.000000	-0.001191
557.000000	-0.000858
556.000000	-0.000044
555.000000	0.000013
554.000000	0.000462
553.000000	0.000633
552.000000	0.001337
551.000000	0.001699
550.000000	0.002006
549.000000	0.002413
548.000000	0.002686
547.000000	0.003588
546.000000	0.003450
545.000000	0.003513
544.000000	0.003789
543.000000	0.004331
542.000000	0.004394
541.000000	0.004169
540.000000	0.004914
539.000000	0.005103
538.000000	0.005792
537.000000	0.005899
536.000000	0.006639
535.000000	0.006077
534.000000	0.006663
533.000000	0.006107
532.000000	0.006892
531.000000	0.007194
530.000000	0.007748
529.000000	0.007269
528.000000	0.007926
527.000000	0.008369
526.000000	0.008684
525.000000	0.009236
524.000000	0.009567
523.000000	0.009609
522.000000	0.009076
521.000000	0.009847
520.000000	0.010245
519.000000	0.010978
518.000000	0.011242
517.000000	0.011086
516.000000	0.011207
515.000000	0.011682
514.000000	0.011778
513.000000	0.012364
512.000000	0.013377
511.000000	0.013477
510.000000	0.013769
509.000000	0.014023
508.000000	0.013904
507.000000	0.015018
506.000000	0.014935
505.000000	0.015293
504.000000	0.015983
503.000000	0.015903
502.000000	0.016364
501.000000	0.017118
500.000000	0.017321
499.000000	0.017591
498.000000	0.017878
497.000000	0.018648
496.000000	0.019074
495.000000	0.019272
494.000000	0.019389
493.000000	0.019646
492.000000	0.019898
491.000000	0.020468
490.000000	0.020399
489.000000	0.020702
488.000000	0.021146
487.000000	0.021003
486.000000	0.021750
485.000000	0.022158
484.000000	0.022070
483.000000	0.023400
482.000000	0.023647
481.000000	0.024002
480.000000	0.024416
479.000000	0.024953
478.000000	0.025620
477.000000	0.026910
476.000000	0.027428
475.000000	0.028157
474.000000	0.029550
473.000000	0.030338
472.000000	0.031046
471.000000	0.032151
470.000000	0.033095
469.000000	0.033968
468.000000	0.034755
467.000000	0.035132
466.000000	0.035992
465.000000	0.036193
464.000000	0.036450
463.000000	0.036739
462.000000	0.037166
461.000000	0.037722
460.000000	0.037342
459.000000	0.037377
458.000000	0.037419
457.000000	0.037695
456.000000	0.037736
455.000000	0.037529
454.000000	0.037329
453.000000	0.037985
452.000000	0.038175
451.000000	0.038246
450.000000	0.039156
449.000000	0.039956
448.000000	0.040332
447.000000	0.040944
446.000000	0.041492
445.000000	0.042441
444.000000	0.043205
443.000000	0.043730
442.000000	0.044642
441.000000	0.045379
440.000000	0.045134
439.000000	0.045766
438.000000	0.046437
437.000000	0.046329
436.000000	0.046234
435.000000	0.046036
434.000000	0.046034
433.000000	0.045708
432.000000	0.045163
431.000000	0.044726
430.000000	0.044789
429.000000	0.044770
428.000000	0.043793
427.000000	0.042883
426.000000	0.042458
425.000000	0.042548
424.000000	0.042623
423.000000	0.042749
422.000000	0.042433
421.000000	0.041970
420.000000	0.042953
419.000000	0.043072
418.000000	0.042648
417.000000	0.042993
416.000000	0.042975
415.000000	0.042668
414.000000	0.042613
413.000000	0.042368
412.000000	0.042225
411.000000	0.042418
410.000000	0.041960
409.000000	0.041468
408.000000	0.040668
407.000000	0.040032
406.000000	0.039960
405.000000	0.039441
404.000000	0.038644
403.000000	0.037871
402.000000	0.037447
401.000000	0.036988
400.000000	0.036808
399.000000	0.036414
398.000000	0.036163
397.000000	0.036133
396.000000	0.035771
395.000000	0.035791
394.000000	0.035805
393.000000	0.035463
392.000000	0.035072
391.000000	0.035425
390.000000	0.035352
389.000000	0.034659
388.000000	0.034183
387.000000	0.034918
386.000000	0.034686
385.000000	0.034235
384.000000	0.033836
383.000000	0.033135
382.000000	0.031748
381.000000	0.031511
380.000000	0.030879
379.000000	0.030156
378.000000	0.028732
377.000000	0.027154
376.000000	0.026585
375.000000	0.027374
374.000000	0.026642
373.000000	0.025880
372.000000	0.024862
371.000000	0.024853
370.000000	0.023632
369.000000	0.023942
368.000000	0.021550
367.000000	0.021998
366.000000	0.021068
365.000000	0.020797
364.000000	0.020867
363.000000	0.020874
362.000000	0.019526
361.000000	0.019245
360.000000	0.018785
359.000000	0.019077
358.000000	0.018034
357.000000	0.018789
356.000000	0.018484
355.000000	0.017683
354.000000	0.016566
353.000000	0.016691
352.000000	0.017187
351.000000	0.016369
350.000000	0.018118
349.000000	0.017239
348.000000	0.016323
347.000000	0.017146
346.000000	0.018216
345.000000	0.017858
344.000000	0.018545
343.000000	0.018492
342.000000	0.019944
341.000000	0.019645
340.000000	0.018565
339.000000	0.020982
338.000000	0.020041
337.000000	0.020787
336.000000	0.020190
335.000000	0.020766
334.000000	0.021947
333.000000	0.020030
332.000000	0.021162
331.000000	0.023786
330.000000	0.020347
329.000000	0.021299
328.000000	0.020530
327.000000	0.021108
326.000000	0.022478
325.000000	0.023347
324.000000	0.024192
323.000000	0.022370
322.000000	0.024294
321.000000	0.028305
320.000000	0.025925
319.000000	0.028455
318.000000	0.027132
317.000000	0.029154
316.000000	0.031002
315.000000	0.032487
314.000000	0.030129
313.000000	0.034285
312.000000	0.032768
311.000000	0.033439
310.000000	0.034579
309.000000	0.036968
308.000000	0.041673
307.000000	0.040486
306.000000	0.042684
305.000000	0.044296
304.000000	0.046583
303.000000	0.049849
302.000000	0.053922
301.000000	0.057299
300.000000	0.059736
