PE UV       SUBTECH     SPECTRUM    ASCII       PEDS        4.00        
   -1
PETIT_07.Sample.Raw.asc
20/12/14
13:24:35.00
20/12/14
13:24:35.00
CNRS
RCC0076_A_D0
300.000000
1
Lambda 850
850L1011221
PerkinElmer UV WinLab 6.0.3.0730 / 1.61.00 Lambda 800

0
0
2
0
0
UV/VIS
1
1
1
RBeamAtt,SBeamAtt,150mm sphere / downward view
0
0
0
0
Fix
 
0
0.2
0
0
0
 
 
 
0
 
0
319.2
0
Front
50
 
S:100 R:100
 
0
0
0
 
0
 
 
 
0
 
 
0
0
0
0
0
 
 
 
 
0
0


#HDR
-1
-1
#GR
nm
A
1.0
0.0
800.000000
-1.000000
501
8
0.331537
-0.013685
#DATA
800.000000	-0.012016
799.000000	-0.011245
798.000000	-0.011657
797.000000	-0.012390
796.000000	-0.011988
795.000000	-0.012253
794.000000	-0.012638
793.000000	-0.012509
792.000000	-0.012608
791.000000	-0.011637
790.000000	-0.012451
789.000000	-0.013269
788.000000	-0.012703
787.000000	-0.011826
786.000000	-0.012209
785.000000	-0.011941
784.000000	-0.012298
783.000000	-0.012649
782.000000	-0.013122
781.000000	-0.012699
780.000000	-0.011605
779.000000	-0.012582
778.000000	-0.011235
777.000000	-0.012621
776.000000	-0.013474
775.000000	-0.011290
774.000000	-0.011795
773.000000	-0.012406
772.000000	-0.012130
771.000000	-0.012473
770.000000	-0.011828
769.000000	-0.012796
768.000000	-0.012849
767.000000	-0.013685
766.000000	-0.012492
765.000000	-0.012282
764.000000	-0.012831
763.000000	-0.012997
762.000000	-0.012044
761.000000	-0.012226
760.000000	-0.012794
759.000000	-0.012479
758.000000	-0.012490
757.000000	-0.012287
756.000000	-0.012617
755.000000	-0.012897
754.000000	-0.012738
753.000000	-0.012531
752.000000	-0.012477
751.000000	-0.012570
750.000000	-0.012709
749.000000	-0.012996
748.000000	-0.011863
747.000000	-0.012167
746.000000	-0.012326
745.000000	-0.012727
744.000000	-0.011702
743.000000	-0.011501
742.000000	-0.011637
741.000000	-0.011746
740.000000	-0.011351
739.000000	-0.011705
738.000000	-0.012000
737.000000	-0.011612
736.000000	-0.011364
735.000000	-0.011761
734.000000	-0.011349
733.000000	-0.011576
732.000000	-0.011752
731.000000	-0.011647
730.000000	-0.011327
729.000000	-0.010543
728.000000	-0.010436
727.000000	-0.010589
726.000000	-0.010130
725.000000	-0.010214
724.000000	-0.009388
723.000000	-0.009574
722.000000	-0.009031
721.000000	-0.008666
720.000000	-0.007503
719.000000	-0.007469
718.000000	-0.007461
717.000000	-0.005869
716.000000	-0.004371
715.000000	-0.004029
714.000000	-0.002475
713.000000	-0.001063
712.000000	0.000601
711.000000	0.002302
710.000000	0.004366
709.000000	0.006678
708.000000	0.009041
707.000000	0.012215
706.000000	0.015925
705.000000	0.020575
704.000000	0.024858
703.000000	0.029926
702.000000	0.036180
701.000000	0.042667
700.000000	0.050361
699.000000	0.059230
698.000000	0.068453
697.000000	0.078674
696.000000	0.090222
695.000000	0.103252
694.000000	0.116858
693.000000	0.130959
692.000000	0.144479
691.000000	0.158244
690.000000	0.172297
689.000000	0.185717
688.000000	0.198437
687.000000	0.209464
686.000000	0.219496
685.000000	0.228592
684.000000	0.236015
683.000000	0.242407
682.000000	0.248099
681.000000	0.252714
680.000000	0.256306
679.000000	0.260013
678.000000	0.263527
677.000000	0.266159
676.000000	0.268006
675.000000	0.269412
674.000000	0.269886
673.000000	0.269192
672.000000	0.267576
671.000000	0.264663
670.000000	0.260621
669.000000	0.255809
668.000000	0.250211
667.000000	0.243410
666.000000	0.235440
665.000000	0.227745
664.000000	0.219510
663.000000	0.210361
662.000000	0.200725
661.000000	0.190722
660.000000	0.180885
659.000000	0.171162
658.000000	0.161418
657.000000	0.152387
656.000000	0.144425
655.000000	0.136690
654.000000	0.129860
653.000000	0.124194
652.000000	0.119573
651.000000	0.115662
650.000000	0.112299
649.000000	0.109959
648.000000	0.108910
647.000000	0.107888
646.000000	0.107402
645.000000	0.107888
644.000000	0.108991
643.000000	0.110314
642.000000	0.111607
641.000000	0.113083
640.000000	0.114979
639.000000	0.116692
638.000000	0.118037
637.000000	0.119035
636.000000	0.119876
635.000000	0.120907
634.000000	0.121736
633.000000	0.121952
632.000000	0.122008
631.000000	0.121732
630.000000	0.121138
629.000000	0.120794
628.000000	0.120345
627.000000	0.120084
626.000000	0.119907
625.000000	0.119050
624.000000	0.118646
623.000000	0.118065
622.000000	0.117666
621.000000	0.116187
620.000000	0.115297
619.000000	0.113866
618.000000	0.112682
617.000000	0.111118
616.000000	0.109454
615.000000	0.107423
614.000000	0.105167
613.000000	0.102618
612.000000	0.100059
611.000000	0.098179
610.000000	0.094976
609.000000	0.092837
608.000000	0.090729
607.000000	0.087870
606.000000	0.086068
605.000000	0.083756
604.000000	0.082684
603.000000	0.081433
602.000000	0.080355
601.000000	0.079904
600.000000	0.079817
599.000000	0.079814
598.000000	0.080293
597.000000	0.080191
596.000000	0.081788
595.000000	0.082288
594.000000	0.083571
593.000000	0.084241
592.000000	0.084432
591.000000	0.085852
590.000000	0.086469
589.000000	0.087153
588.000000	0.087338
587.000000	0.087441
586.000000	0.087736
585.000000	0.087642
584.000000	0.087813
583.000000	0.087681
582.000000	0.087870
581.000000	0.087487
580.000000	0.087201
579.000000	0.087342
578.000000	0.086348
577.000000	0.086356
576.000000	0.085566
575.000000	0.085959
574.000000	0.085875
573.000000	0.086002
572.000000	0.086028
571.000000	0.086488
570.000000	0.086731
569.000000	0.087052
568.000000	0.088228
567.000000	0.088963
566.000000	0.089813
565.000000	0.091541
564.000000	0.092878
563.000000	0.094776
562.000000	0.096834
561.000000	0.099496
560.000000	0.101241
559.000000	0.104155
558.000000	0.106038
557.000000	0.108876
556.000000	0.112098
555.000000	0.114576
554.000000	0.117259
553.000000	0.119964
552.000000	0.122785
551.000000	0.125427
550.000000	0.128256
549.000000	0.130509
548.000000	0.132600
547.000000	0.136319
546.000000	0.137717
545.000000	0.140199
544.000000	0.142008
543.000000	0.144438
542.000000	0.146457
541.000000	0.148038
540.000000	0.150171
539.000000	0.152485
538.000000	0.154278
537.000000	0.156484
536.000000	0.158550
535.000000	0.159489
534.000000	0.161565
533.000000	0.162621
532.000000	0.164436
531.000000	0.166082
530.000000	0.167706
529.000000	0.169203
528.000000	0.171192
527.000000	0.172591
526.000000	0.174456
525.000000	0.176254
524.000000	0.177446
523.000000	0.179097
522.000000	0.180386
521.000000	0.183052
520.000000	0.184764
519.000000	0.187360
518.000000	0.189079
517.000000	0.190529
516.000000	0.192780
515.000000	0.195086
514.000000	0.197473
513.000000	0.199982
512.000000	0.202572
511.000000	0.205088
510.000000	0.207650
509.000000	0.210107
508.000000	0.212906
507.000000	0.216093
506.000000	0.218684
505.000000	0.221640
504.000000	0.224688
503.000000	0.226881
502.000000	0.229576
501.000000	0.232895
500.000000	0.234941
499.000000	0.237267
498.000000	0.239502
497.000000	0.241249
496.000000	0.243089
495.000000	0.244406
494.000000	0.245605
493.000000	0.246817
492.000000	0.247149
491.000000	0.247388
490.000000	0.246918
489.000000	0.247190
488.000000	0.247335
487.000000	0.246132
486.000000	0.245877
485.000000	0.245348
484.000000	0.245019
483.000000	0.244769
482.000000	0.244551
481.000000	0.244656
480.000000	0.245032
479.000000	0.245587
478.000000	0.246473
477.000000	0.248113
476.000000	0.249586
475.000000	0.251573
474.000000	0.254193
473.000000	0.256554
472.000000	0.258965
471.000000	0.261824
470.000000	0.264434
469.000000	0.267228
468.000000	0.270102
467.000000	0.272580
466.000000	0.275559
465.000000	0.277237
464.000000	0.279652
463.000000	0.282040
462.000000	0.284129
461.000000	0.285913
460.000000	0.287161
459.000000	0.288817
458.000000	0.290507
457.000000	0.292155
456.000000	0.293712
455.000000	0.295262
454.000000	0.296773
453.000000	0.298668
452.000000	0.300642
451.000000	0.303279
450.000000	0.306186
449.000000	0.308667
448.000000	0.311416
447.000000	0.314566
446.000000	0.317685
445.000000	0.320553
444.000000	0.323511
443.000000	0.325266
442.000000	0.327299
441.000000	0.329064
440.000000	0.330097
439.000000	0.331002
438.000000	0.331537
437.000000	0.331281
436.000000	0.330647
435.000000	0.329952
434.000000	0.329676
433.000000	0.328844
432.000000	0.327203
431.000000	0.326221
430.000000	0.325206
429.000000	0.323349
428.000000	0.322086
427.000000	0.320919
426.000000	0.319469
425.000000	0.318951
424.000000	0.318252
423.000000	0.318203
422.000000	0.318199
421.000000	0.317801
420.000000	0.317850
419.000000	0.317430
418.000000	0.316936
417.000000	0.316190
416.000000	0.315401
415.000000	0.314091
414.000000	0.312373
413.000000	0.310578
412.000000	0.308913
411.000000	0.307014
410.000000	0.303318
409.000000	0.300285
408.000000	0.297807
407.000000	0.294841
406.000000	0.292259
405.000000	0.289946
404.000000	0.287636
403.000000	0.284222
402.000000	0.281700
401.000000	0.279506
400.000000	0.278482
399.000000	0.276949
398.000000	0.275219
397.000000	0.273308
396.000000	0.272133
395.000000	0.270726
394.000000	0.269157
393.000000	0.269135
392.000000	0.268145
391.000000	0.267112
390.000000	0.265882
389.000000	0.264761
388.000000	0.263984
387.000000	0.263238
386.000000	0.261549
385.000000	0.259761
384.000000	0.258830
383.000000	0.258027
382.000000	0.256458
381.000000	0.254250
380.000000	0.252843
379.000000	0.251554
378.000000	0.241845
377.000000	0.234149
376.000000	0.231254
375.000000	0.230423
374.000000	0.228317
373.000000	0.226086
372.000000	0.224165
371.000000	0.221955
370.000000	0.220123
369.000000	0.217281
368.000000	0.212918
367.000000	0.211316
366.000000	0.211603
365.000000	0.209697
364.000000	0.207736
363.000000	0.206692
362.000000	0.205152
361.000000	0.203172
360.000000	0.202967
359.000000	0.202516
358.000000	0.201803
357.000000	0.201003
356.000000	0.200959
355.000000	0.199533
354.000000	0.196964
353.000000	0.198400
352.000000	0.198240
351.000000	0.198413
350.000000	0.200865
349.000000	0.199782
348.000000	0.201175
347.000000	0.201630
346.000000	0.204611
345.000000	0.203567
344.000000	0.205148
343.000000	0.207455
342.000000	0.207335
341.000000	0.206678
340.000000	0.206977
339.000000	0.209330
338.000000	0.206777
337.000000	0.211866
336.000000	0.209285
335.000000	0.207080
334.000000	0.207179
333.000000	0.206110
332.000000	0.204990
331.000000	0.205514
330.000000	0.200378
329.000000	0.202058
328.000000	0.199095
327.000000	0.197721
326.000000	0.199311
325.000000	0.197073
324.000000	0.198424
323.000000	0.198996
322.000000	0.199448
321.000000	0.201048
320.000000	0.197471
319.000000	0.197471
318.000000	0.202345
317.000000	0.204719
316.000000	0.206080
315.000000	0.208160
314.000000	0.204842
313.000000	0.206905
312.000000	0.206029
311.000000	0.209203
310.000000	0.212617
309.000000	0.211691
308.000000	0.213348
307.000000	0.216229
306.000000	0.220996
305.000000	0.222135
304.000000	0.225628
303.000000	0.229609
302.000000	0.237433
301.000000	0.242434
300.000000	0.250231
