PE UV       SUBTECH     SPECTRUM    ASCII       PEDS        4.00        
   -1
PETIT_04.Sample.Raw.asc
20/12/14
13:13:50.00
20/12/14
13:13:50.00
CNRS
RCC9511_A_D1
300.000000
1
Lambda 850
850L1011221
PerkinElmer UV WinLab 6.0.3.0730 / 1.61.00 Lambda 800

0
0
2
0
0
UV/VIS
1
1
1
RBeamAtt,SBeamAtt,150mm sphere / downward view
0
0
0
0
Fix
 
0
0.2
0
0
0
 
 
 
0
 
0
319.2
0
Front
50
 
S:100 R:100
 
0
0
0
 
0
 
 
 
0
 
 
0
0
0
0
0
 
 
 
 
0
0


#HDR
-1
-1
#GR
nm
A
1.0
0.0
800.000000
-1.000000
501
8
0.237742
-0.012889
#DATA
800.000000	-0.010795
799.000000	-0.010699
798.000000	-0.010380
797.000000	-0.009891
796.000000	-0.009660
795.000000	-0.010688
794.000000	-0.011247
793.000000	-0.010871
792.000000	-0.012196
791.000000	-0.010113
790.000000	-0.011492
789.000000	-0.012116
788.000000	-0.011021
787.000000	-0.011373
786.000000	-0.011533
785.000000	-0.010843
784.000000	-0.010979
783.000000	-0.011204
782.000000	-0.011436
781.000000	-0.011085
780.000000	-0.010847
779.000000	-0.011026
778.000000	-0.011275
777.000000	-0.011633
776.000000	-0.012310
775.000000	-0.011027
774.000000	-0.011760
773.000000	-0.010911
772.000000	-0.012296
771.000000	-0.011619
770.000000	-0.010171
769.000000	-0.011630
768.000000	-0.012623
767.000000	-0.011678
766.000000	-0.011624
765.000000	-0.011427
764.000000	-0.011371
763.000000	-0.011836
762.000000	-0.011852
761.000000	-0.011391
760.000000	-0.012389
759.000000	-0.012676
758.000000	-0.011256
757.000000	-0.012623
756.000000	-0.011148
755.000000	-0.011743
754.000000	-0.012635
753.000000	-0.012295
752.000000	-0.012578
751.000000	-0.012319
750.000000	-0.012462
749.000000	-0.012316
748.000000	-0.011571
747.000000	-0.011286
746.000000	-0.011565
745.000000	-0.011269
744.000000	-0.011147
743.000000	-0.011773
742.000000	-0.011241
741.000000	-0.012466
740.000000	-0.011416
739.000000	-0.011109
738.000000	-0.011887
737.000000	-0.011601
736.000000	-0.011108
735.000000	-0.011797
734.000000	-0.011509
733.000000	-0.011199
732.000000	-0.011621
731.000000	-0.011653
730.000000	-0.012889
729.000000	-0.012517
728.000000	-0.012012
727.000000	-0.011993
726.000000	-0.012075
725.000000	-0.012680
724.000000	-0.012047
723.000000	-0.012173
722.000000	-0.011751
721.000000	-0.012091
720.000000	-0.011748
719.000000	-0.012051
718.000000	-0.012728
717.000000	-0.012218
716.000000	-0.012077
715.000000	-0.012466
714.000000	-0.011993
713.000000	-0.011352
712.000000	-0.011606
711.000000	-0.011686
710.000000	-0.011686
709.000000	-0.011847
708.000000	-0.011494
707.000000	-0.011467
706.000000	-0.010915
705.000000	-0.009933
704.000000	-0.010065
703.000000	-0.009627
702.000000	-0.008666
701.000000	-0.008214
700.000000	-0.007509
699.000000	-0.006582
698.000000	-0.005476
697.000000	-0.003992
696.000000	-0.002219
695.000000	-0.000352
694.000000	0.001537
693.000000	0.004038
692.000000	0.006762
691.000000	0.009455
690.000000	0.013227
689.000000	0.016717
688.000000	0.020357
687.000000	0.024512
686.000000	0.028022
685.000000	0.031328
684.000000	0.034712
683.000000	0.038170
682.000000	0.040951
681.000000	0.043312
680.000000	0.045416
679.000000	0.047256
678.000000	0.048946
677.000000	0.049579
676.000000	0.050442
675.000000	0.051614
674.000000	0.052110
673.000000	0.051548
672.000000	0.050850
671.000000	0.050238
670.000000	0.048740
669.000000	0.046633
668.000000	0.044223
667.000000	0.041511
666.000000	0.038217
665.000000	0.034668
664.000000	0.031190
663.000000	0.027788
662.000000	0.024305
661.000000	0.021269
660.000000	0.018429
659.000000	0.015841
658.000000	0.013610
657.000000	0.011990
656.000000	0.010477
655.000000	0.008943
654.000000	0.007746
653.000000	0.006458
652.000000	0.005434
651.000000	0.005050
650.000000	0.004507
649.000000	0.003871
648.000000	0.003716
647.000000	0.003189
646.000000	0.002678
645.000000	0.002559
644.000000	0.002653
643.000000	0.002609
642.000000	0.002883
641.000000	0.002780
640.000000	0.002876
639.000000	0.003135
638.000000	0.003180
637.000000	0.003269
636.000000	0.003001
635.000000	0.003486
634.000000	0.003956
633.000000	0.004025
632.000000	0.003812
631.000000	0.003680
630.000000	0.003909
629.000000	0.003980
628.000000	0.003692
627.000000	0.003599
626.000000	0.003603
625.000000	0.003245
624.000000	0.003503
623.000000	0.003364
622.000000	0.002802
621.000000	0.002146
620.000000	0.001786
619.000000	0.002254
618.000000	0.001913
617.000000	0.001353
616.000000	0.001582
615.000000	0.001283
614.000000	0.001074
613.000000	0.000707
612.000000	0.000343
611.000000	0.000208
610.000000	-0.000882
609.000000	-0.000898
608.000000	-0.000656
607.000000	-0.001189
606.000000	-0.001597
605.000000	-0.002011
604.000000	-0.001908
603.000000	-0.001986
602.000000	-0.001894
601.000000	-0.001972
600.000000	-0.002333
599.000000	-0.002090
598.000000	-0.001953
597.000000	-0.003110
596.000000	-0.001835
595.000000	-0.002019
594.000000	-0.001930
593.000000	-0.001954
592.000000	-0.002439
591.000000	-0.002504
590.000000	-0.002151
589.000000	-0.002604
588.000000	-0.002606
587.000000	-0.003168
586.000000	-0.003078
585.000000	-0.003201
584.000000	-0.003155
583.000000	-0.003223
582.000000	-0.003124
581.000000	-0.003086
580.000000	-0.003257
579.000000	-0.003415
578.000000	-0.003754
577.000000	-0.003653
576.000000	-0.004252
575.000000	-0.004037
574.000000	-0.003321
573.000000	-0.003964
572.000000	-0.004238
571.000000	-0.004027
570.000000	-0.004323
569.000000	-0.004164
568.000000	-0.004114
567.000000	-0.004284
566.000000	-0.004285
565.000000	-0.004423
564.000000	-0.003564
563.000000	-0.003697
562.000000	-0.003512
561.000000	-0.003340
560.000000	-0.003572
559.000000	-0.002639
558.000000	-0.003233
557.000000	-0.003020
556.000000	-0.002338
555.000000	-0.002245
554.000000	-0.002278
553.000000	-0.001978
552.000000	-0.001980
551.000000	-0.001083
550.000000	-0.001254
549.000000	-0.001077
548.000000	-0.000830
547.000000	0.000469
546.000000	0.000199
545.000000	0.000221
544.000000	0.000442
543.000000	0.000704
542.000000	0.001229
541.000000	0.001329
540.000000	0.001612
539.000000	0.002438
538.000000	0.002790
537.000000	0.003244
536.000000	0.003824
535.000000	0.003903
534.000000	0.004912
533.000000	0.004498
532.000000	0.005428
531.000000	0.006195
530.000000	0.006862
529.000000	0.007810
528.000000	0.008781
527.000000	0.009656
526.000000	0.011108
525.000000	0.011915
524.000000	0.013421
523.000000	0.014528
522.000000	0.015384
521.000000	0.017934
520.000000	0.019101
519.000000	0.021731
518.000000	0.023643
517.000000	0.025429
516.000000	0.027967
515.000000	0.030660
514.000000	0.032675
513.000000	0.035512
512.000000	0.038503
511.000000	0.041303
510.000000	0.044384
509.000000	0.047173
508.000000	0.049996
507.000000	0.053249
506.000000	0.055946
505.000000	0.059049
504.000000	0.062009
503.000000	0.064770
502.000000	0.067790
501.000000	0.070741
500.000000	0.073133
499.000000	0.075765
498.000000	0.077942
497.000000	0.079552
496.000000	0.081312
495.000000	0.083187
494.000000	0.084563
493.000000	0.086053
492.000000	0.086768
491.000000	0.087979
490.000000	0.088930
489.000000	0.089842
488.000000	0.090590
487.000000	0.090780
486.000000	0.092027
485.000000	0.092578
484.000000	0.093267
483.000000	0.094033
482.000000	0.094838
481.000000	0.095387
480.000000	0.095826
479.000000	0.096666
478.000000	0.097774
477.000000	0.099070
476.000000	0.100109
475.000000	0.101422
474.000000	0.103377
473.000000	0.104927
472.000000	0.106651
471.000000	0.108514
470.000000	0.110523
469.000000	0.112668
468.000000	0.114804
467.000000	0.116562
466.000000	0.119774
465.000000	0.121880
464.000000	0.124923
463.000000	0.128100
462.000000	0.131195
461.000000	0.133671
460.000000	0.136291
459.000000	0.139565
458.000000	0.142475
457.000000	0.145347
456.000000	0.147967
455.000000	0.150877
454.000000	0.152922
453.000000	0.154933
452.000000	0.157452
451.000000	0.159293
450.000000	0.161437
449.000000	0.163079
448.000000	0.164065
447.000000	0.165358
446.000000	0.166059
445.000000	0.166273
444.000000	0.166481
443.000000	0.166145
442.000000	0.165765
441.000000	0.165053
440.000000	0.163810
439.000000	0.162847
438.000000	0.162626
437.000000	0.161304
436.000000	0.160456
435.000000	0.159678
434.000000	0.158561
433.000000	0.157835
432.000000	0.157622
431.000000	0.157094
430.000000	0.156748
429.000000	0.156479
428.000000	0.155762
427.000000	0.155254
426.000000	0.154597
425.000000	0.154157
424.000000	0.153917
423.000000	0.153625
422.000000	0.153142
421.000000	0.151997
420.000000	0.151113
419.000000	0.150730
418.000000	0.150096
417.000000	0.149286
416.000000	0.147866
415.000000	0.146661
414.000000	0.145764
413.000000	0.144594
412.000000	0.144118
411.000000	0.143532
410.000000	0.142161
409.000000	0.141904
408.000000	0.141507
407.000000	0.140923
406.000000	0.140602
405.000000	0.140288
404.000000	0.140713
403.000000	0.140714
402.000000	0.140775
401.000000	0.140717
400.000000	0.141289
399.000000	0.141737
398.000000	0.143141
397.000000	0.144240
396.000000	0.144869
395.000000	0.145197
394.000000	0.146227
393.000000	0.147088
392.000000	0.147479
391.000000	0.148331
390.000000	0.148461
389.000000	0.148454
388.000000	0.148287
387.000000	0.148745
386.000000	0.148573
385.000000	0.146963
384.000000	0.146531
383.000000	0.145510
382.000000	0.143639
381.000000	0.142702
380.000000	0.141939
379.000000	0.140257
378.000000	0.142012
377.000000	0.141461
376.000000	0.139153
375.000000	0.141197
374.000000	0.140025
373.000000	0.138555
372.000000	0.137929
371.000000	0.137859
370.000000	0.137832
369.000000	0.137507
368.000000	0.136272
367.000000	0.136887
366.000000	0.137770
365.000000	0.137844
364.000000	0.136950
363.000000	0.138340
362.000000	0.138625
361.000000	0.139298
360.000000	0.140690
359.000000	0.142345
358.000000	0.142247
357.000000	0.143438
356.000000	0.145632
355.000000	0.147072
354.000000	0.146210
353.000000	0.146755
352.000000	0.147711
351.000000	0.149878
350.000000	0.152219
349.000000	0.152279
348.000000	0.151905
347.000000	0.152489
346.000000	0.155534
345.000000	0.156275
344.000000	0.159068
343.000000	0.159045
342.000000	0.158622
341.000000	0.160012
340.000000	0.160834
339.000000	0.164923
338.000000	0.164306
337.000000	0.164924
336.000000	0.166038
335.000000	0.166867
334.000000	0.166520
333.000000	0.168011
332.000000	0.170382
331.000000	0.169734
330.000000	0.169321
329.000000	0.173130
328.000000	0.170766
327.000000	0.172247
326.000000	0.174452
325.000000	0.178466
324.000000	0.177798
323.000000	0.178672
322.000000	0.179292
321.000000	0.181815
320.000000	0.186123
319.000000	0.190147
318.000000	0.184437
317.000000	0.186869
316.000000	0.188678
315.000000	0.190922
314.000000	0.190700
313.000000	0.195775
312.000000	0.195981
311.000000	0.197998
310.000000	0.202823
309.000000	0.204644
308.000000	0.207893
307.000000	0.208525
306.000000	0.213195
305.000000	0.215194
304.000000	0.218376
303.000000	0.222329
302.000000	0.227228
301.000000	0.231859
300.000000	0.237742
