PE UV       SUBTECH     SPECTRUM    ASCII       PEDS        4.00        
   -1
PETIT-53.Sample.Raw.asc
20/12/15
11:47:46.00
20/12/15
11:47:46.00
CNRS
RCC156_B_D2
300.000000
1
Lambda 850
850L1011221
PerkinElmer UV WinLab 6.0.3.0730 / 1.61.00 Lambda 800

0
0
2
0
0
UV/VIS
1
1
1
RBeamAtt,SBeamAtt,150mm sphere / downward view
0
0
0
0
Fix
 
0
0.2
0
0
0
 
 
 
0
 
0
319.2
0
Front
50
 
S:100 R:100
 
0
0
0
 
0
 
 
 
0
 
 
0
0
0
0
0
 
 
 
 
0
0


#HDR
-1
-1
#GR
nm
A
1.0
0.0
800.000000
-1.000000
501
8
0.211064
-0.014935
#DATA
800.000000	-0.013008
799.000000	-0.013438
798.000000	-0.013292
797.000000	-0.012878
796.000000	-0.013498
795.000000	-0.014935
794.000000	-0.014015
793.000000	-0.013375
792.000000	-0.013539
791.000000	-0.013402
790.000000	-0.013214
789.000000	-0.014020
788.000000	-0.013426
787.000000	-0.012874
786.000000	-0.014845
785.000000	-0.014494
784.000000	-0.013552
783.000000	-0.013798
782.000000	-0.011905
781.000000	-0.014297
780.000000	-0.013660
779.000000	-0.013658
778.000000	-0.013488
777.000000	-0.013086
776.000000	-0.012983
775.000000	-0.012835
774.000000	-0.013233
773.000000	-0.014690
772.000000	-0.013657
771.000000	-0.014036
770.000000	-0.014020
769.000000	-0.012797
768.000000	-0.014009
767.000000	-0.013002
766.000000	-0.013888
765.000000	-0.013582
764.000000	-0.014381
763.000000	-0.013280
762.000000	-0.012766
761.000000	-0.013237
760.000000	-0.014399
759.000000	-0.014048
758.000000	-0.013999
757.000000	-0.013315
756.000000	-0.013950
755.000000	-0.012452
754.000000	-0.013485
753.000000	-0.014795
752.000000	-0.014699
751.000000	-0.014626
750.000000	-0.013624
749.000000	-0.012701
748.000000	-0.012538
747.000000	-0.012224
746.000000	-0.012859
745.000000	-0.012982
744.000000	-0.013479
743.000000	-0.012947
742.000000	-0.013200
741.000000	-0.013886
740.000000	-0.012703
739.000000	-0.013746
738.000000	-0.013222
737.000000	-0.014073
736.000000	-0.013317
735.000000	-0.013552
734.000000	-0.013694
733.000000	-0.013810
732.000000	-0.014185
731.000000	-0.013374
730.000000	-0.014172
729.000000	-0.014615
728.000000	-0.014167
727.000000	-0.013630
726.000000	-0.013712
725.000000	-0.013883
724.000000	-0.014149
723.000000	-0.013950
722.000000	-0.013680
721.000000	-0.013997
720.000000	-0.014538
719.000000	-0.014422
718.000000	-0.013965
717.000000	-0.014395
716.000000	-0.014021
715.000000	-0.013419
714.000000	-0.013211
713.000000	-0.013268
712.000000	-0.013315
711.000000	-0.014124
710.000000	-0.013733
709.000000	-0.012942
708.000000	-0.012392
707.000000	-0.011939
706.000000	-0.011424
705.000000	-0.011336
704.000000	-0.010465
703.000000	-0.009937
702.000000	-0.009363
701.000000	-0.008595
700.000000	-0.008089
699.000000	-0.006966
698.000000	-0.005599
697.000000	-0.004242
696.000000	-0.002959
695.000000	-0.001300
694.000000	0.000876
693.000000	0.002973
692.000000	0.005716
691.000000	0.008818
690.000000	0.012035
689.000000	0.014990
688.000000	0.018765
687.000000	0.022874
686.000000	0.026060
685.000000	0.029772
684.000000	0.033669
683.000000	0.036662
682.000000	0.039724
681.000000	0.042428
680.000000	0.044554
679.000000	0.046700
678.000000	0.049018
677.000000	0.050860
676.000000	0.052239
675.000000	0.053576
674.000000	0.054355
673.000000	0.054078
672.000000	0.053477
671.000000	0.053008
670.000000	0.051692
669.000000	0.049992
668.000000	0.048220
667.000000	0.045605
666.000000	0.042968
665.000000	0.039983
664.000000	0.037308
663.000000	0.034773
662.000000	0.032318
661.000000	0.029887
660.000000	0.028057
659.000000	0.026688
658.000000	0.025557
657.000000	0.023777
656.000000	0.022198
655.000000	0.021281
654.000000	0.020461
653.000000	0.019785
652.000000	0.019278
651.000000	0.018537
650.000000	0.017860
649.000000	0.016977
648.000000	0.016330
647.000000	0.015572
646.000000	0.014667
645.000000	0.013649
644.000000	0.012711
643.000000	0.011938
642.000000	0.011089
641.000000	0.010275
640.000000	0.010305
639.000000	0.009599
638.000000	0.008902
637.000000	0.008945
636.000000	0.008497
635.000000	0.007711
634.000000	0.007467
633.000000	0.008001
632.000000	0.008024
631.000000	0.007824
630.000000	0.007669
629.000000	0.007121
628.000000	0.006698
627.000000	0.006507
626.000000	0.006321
625.000000	0.006074
624.000000	0.005893
623.000000	0.005366
622.000000	0.005284
621.000000	0.005469
620.000000	0.005440
619.000000	0.004875
618.000000	0.004518
617.000000	0.004428
616.000000	0.004001
615.000000	0.003792
614.000000	0.003757
613.000000	0.003603
612.000000	0.003424
611.000000	0.002952
610.000000	0.002879
609.000000	0.002435
608.000000	0.002608
607.000000	0.001773
606.000000	0.002204
605.000000	0.002522
604.000000	0.002003
603.000000	0.001725
602.000000	0.001391
601.000000	0.001833
600.000000	0.001553
599.000000	0.001461
598.000000	0.000919
597.000000	0.000817
596.000000	0.000919
595.000000	0.000931
594.000000	0.000702
593.000000	0.000527
592.000000	0.000308
591.000000	0.000795
590.000000	0.000364
589.000000	-0.000671
588.000000	-0.000313
587.000000	-0.000383
586.000000	-0.000890
585.000000	-0.000790
584.000000	-0.000797
583.000000	-0.001458
582.000000	-0.001787
581.000000	-0.001845
580.000000	-0.001456
579.000000	-0.001542
578.000000	-0.001774
577.000000	-0.002026
576.000000	-0.002197
575.000000	-0.002109
574.000000	-0.002325
573.000000	-0.002200
572.000000	-0.002243
571.000000	-0.002512
570.000000	-0.002819
569.000000	-0.002603
568.000000	-0.002288
567.000000	-0.002418
566.000000	-0.002215
565.000000	-0.001915
564.000000	-0.001657
563.000000	-0.001400
562.000000	-0.001575
561.000000	-0.001515
560.000000	-0.000449
559.000000	-0.000645
558.000000	-0.000129
557.000000	0.000664
556.000000	0.000391
555.000000	0.000530
554.000000	0.000796
553.000000	0.002072
552.000000	0.001883
551.000000	0.002919
550.000000	0.003230
549.000000	0.003590
548.000000	0.004410
547.000000	0.005008
546.000000	0.005749
545.000000	0.006240
544.000000	0.007090
543.000000	0.007631
542.000000	0.008409
541.000000	0.009558
540.000000	0.010285
539.000000	0.011105
538.000000	0.012326
537.000000	0.013269
536.000000	0.014231
535.000000	0.015656
534.000000	0.016831
533.000000	0.018162
532.000000	0.019084
531.000000	0.020346
530.000000	0.022026
529.000000	0.023180
528.000000	0.025166
527.000000	0.027126
526.000000	0.029325
525.000000	0.031082
524.000000	0.033011
523.000000	0.034593
522.000000	0.037798
521.000000	0.039837
520.000000	0.043016
519.000000	0.045565
518.000000	0.048595
517.000000	0.051410
516.000000	0.055173
515.000000	0.058441
514.000000	0.062850
513.000000	0.066709
512.000000	0.070257
511.000000	0.073559
510.000000	0.077222
509.000000	0.081750
508.000000	0.085747
507.000000	0.089795
506.000000	0.094492
505.000000	0.097758
504.000000	0.101416
503.000000	0.104508
502.000000	0.108671
501.000000	0.111896
500.000000	0.115677
499.000000	0.118345
498.000000	0.121406
497.000000	0.124387
496.000000	0.127320
495.000000	0.129350
494.000000	0.131569
493.000000	0.133698
492.000000	0.135851
491.000000	0.137676
490.000000	0.139144
489.000000	0.141782
488.000000	0.142880
487.000000	0.144817
486.000000	0.146659
485.000000	0.147413
484.000000	0.148287
483.000000	0.150323
482.000000	0.151642
481.000000	0.152442
480.000000	0.153886
479.000000	0.154957
478.000000	0.157075
477.000000	0.158789
476.000000	0.160627
475.000000	0.162820
474.000000	0.165235
473.000000	0.166917
472.000000	0.168672
471.000000	0.170365
470.000000	0.172865
469.000000	0.175774
468.000000	0.178401
467.000000	0.180800
466.000000	0.182710
465.000000	0.184389
464.000000	0.186798
463.000000	0.188553
462.000000	0.190141
461.000000	0.192294
460.000000	0.194851
459.000000	0.196364
458.000000	0.197923
457.000000	0.199222
456.000000	0.200815
455.000000	0.202197
454.000000	0.204319
453.000000	0.205586
452.000000	0.206663
451.000000	0.208041
450.000000	0.209241
449.000000	0.209636
448.000000	0.210497
447.000000	0.210817
446.000000	0.210684
445.000000	0.211064
444.000000	0.210120
443.000000	0.209932
442.000000	0.209579
441.000000	0.208253
440.000000	0.207059
439.000000	0.205835
438.000000	0.205030
437.000000	0.204281
436.000000	0.202933
435.000000	0.201592
434.000000	0.201102
433.000000	0.200084
432.000000	0.198525
431.000000	0.197741
430.000000	0.197161
429.000000	0.196018
428.000000	0.194940
427.000000	0.193150
426.000000	0.191763
425.000000	0.191014
424.000000	0.189041
423.000000	0.187309
422.000000	0.186472
421.000000	0.184760
420.000000	0.182598
419.000000	0.180921
418.000000	0.179488
417.000000	0.177629
416.000000	0.175871
415.000000	0.174882
414.000000	0.173073
413.000000	0.171361
412.000000	0.170181
411.000000	0.168681
410.000000	0.167444
409.000000	0.166626
408.000000	0.166256
407.000000	0.165148
406.000000	0.164502
405.000000	0.164241
404.000000	0.163802
403.000000	0.163269
402.000000	0.162796
401.000000	0.162549
400.000000	0.161791
399.000000	0.162525
398.000000	0.163327
397.000000	0.163069
396.000000	0.162075
395.000000	0.162573
394.000000	0.163232
393.000000	0.163509
392.000000	0.163182
391.000000	0.163673
390.000000	0.163830
389.000000	0.162809
388.000000	0.161493
387.000000	0.160874
386.000000	0.160050
385.000000	0.157587
384.000000	0.155274
383.000000	0.152936
382.000000	0.150241
381.000000	0.147052
380.000000	0.143027
379.000000	0.139557
378.000000	0.130875
377.000000	0.124898
376.000000	0.122508
375.000000	0.119439
374.000000	0.114497
373.000000	0.110101
372.000000	0.107860
371.000000	0.104907
370.000000	0.099500
369.000000	0.097691
368.000000	0.094515
367.000000	0.090400
366.000000	0.087006
365.000000	0.085071
364.000000	0.081875
363.000000	0.080545
362.000000	0.078502
361.000000	0.076011
360.000000	0.075956
359.000000	0.073084
358.000000	0.072045
357.000000	0.069003
356.000000	0.069351
355.000000	0.069061
354.000000	0.067359
353.000000	0.067042
352.000000	0.066564
351.000000	0.064595
350.000000	0.063453
349.000000	0.064471
348.000000	0.066619
347.000000	0.064154
346.000000	0.064062
345.000000	0.064135
344.000000	0.064988
343.000000	0.065151
342.000000	0.065845
341.000000	0.062188
340.000000	0.067305
339.000000	0.063867
338.000000	0.061194
337.000000	0.061562
336.000000	0.063305
335.000000	0.062479
334.000000	0.060949
333.000000	0.060626
332.000000	0.059381
331.000000	0.059405
330.000000	0.058793
329.000000	0.056495
328.000000	0.055852
327.000000	0.056481
326.000000	0.056936
325.000000	0.055689
324.000000	0.051673
323.000000	0.056375
322.000000	0.061016
321.000000	0.061528
320.000000	0.058606
319.000000	0.059567
318.000000	0.057834
317.000000	0.056392
316.000000	0.058920
315.000000	0.059384
314.000000	0.060338
313.000000	0.061333
312.000000	0.061386
311.000000	0.065161
310.000000	0.066663
309.000000	0.066195
308.000000	0.071855
307.000000	0.073468
306.000000	0.076344
305.000000	0.080474
304.000000	0.083110
303.000000	0.085266
302.000000	0.091308
301.000000	0.097575
300.000000	0.099798
