PE UV       SUBTECH     SPECTRUM    ASCII       PEDS        4.00        
   -1
PETIT_42.Sample.Raw.asc
20/12/15
10:43:58.00
20/12/15
10:43:58.00
CNRS
RCC3006_B_DM
300.000000
1
Lambda 850
850L1011221
PerkinElmer UV WinLab 6.0.3.0730 / 1.61.00 Lambda 800

0
0
2
0
0
UV/VIS
1
1
1
RBeamAtt,SBeamAtt,150mm sphere / downward view
0
0
0
0
Fix
 
0
0.2
0
0
0
 
 
 
0
 
0
319.2
0
Front
50
 
S:100 R:100
 
0
0
0
 
0
 
 
 
0
 
 
0
0
0
0
0
 
 
 
 
0
0


#HDR
-1
-1
#GR
nm
A
1.0
0.0
800.000000
-1.000000
501
8
0.154804
-0.012523
#DATA
800.000000	-0.011318
799.000000	-0.010756
798.000000	-0.011413
797.000000	-0.010714
796.000000	-0.010470
795.000000	-0.012353
794.000000	-0.011891
793.000000	-0.012523
792.000000	-0.011265
791.000000	-0.010363
790.000000	-0.011062
789.000000	-0.011616
788.000000	-0.011248
787.000000	-0.010606
786.000000	-0.012078
785.000000	-0.011943
784.000000	-0.010626
783.000000	-0.011336
782.000000	-0.010768
781.000000	-0.010828
780.000000	-0.011235
779.000000	-0.011870
778.000000	-0.010293
777.000000	-0.010937
776.000000	-0.010183
775.000000	-0.010946
774.000000	-0.010529
773.000000	-0.010459
772.000000	-0.011004
771.000000	-0.011657
770.000000	-0.010681
769.000000	-0.010027
768.000000	-0.009815
767.000000	-0.011096
766.000000	-0.011507
765.000000	-0.010748
764.000000	-0.011477
763.000000	-0.011240
762.000000	-0.011287
761.000000	-0.010834
760.000000	-0.011553
759.000000	-0.010605
758.000000	-0.010666
757.000000	-0.010230
756.000000	-0.011676
755.000000	-0.009800
754.000000	-0.011049
753.000000	-0.011590
752.000000	-0.011523
751.000000	-0.012209
750.000000	-0.011003
749.000000	-0.010706
748.000000	-0.009675
747.000000	-0.010343
746.000000	-0.010797
745.000000	-0.011210
744.000000	-0.011695
743.000000	-0.010866
742.000000	-0.011470
741.000000	-0.011442
740.000000	-0.011302
739.000000	-0.012041
738.000000	-0.010585
737.000000	-0.011283
736.000000	-0.011674
735.000000	-0.011087
734.000000	-0.010605
733.000000	-0.010594
732.000000	-0.011617
731.000000	-0.011153
730.000000	-0.012134
729.000000	-0.012442
728.000000	-0.011184
727.000000	-0.011209
726.000000	-0.011449
725.000000	-0.011795
724.000000	-0.011742
723.000000	-0.011872
722.000000	-0.011867
721.000000	-0.011612
720.000000	-0.012118
719.000000	-0.011758
718.000000	-0.011396
717.000000	-0.011643
716.000000	-0.011736
715.000000	-0.011326
714.000000	-0.010858
713.000000	-0.010831
712.000000	-0.011086
711.000000	-0.011137
710.000000	-0.010880
709.000000	-0.010706
708.000000	-0.010223
707.000000	-0.010020
706.000000	-0.009751
705.000000	-0.009533
704.000000	-0.008632
703.000000	-0.008402
702.000000	-0.007592
701.000000	-0.006351
700.000000	-0.005375
699.000000	-0.004060
698.000000	-0.002591
697.000000	-0.000625
696.000000	0.001471
695.000000	0.004578
694.000000	0.007836
693.000000	0.011028
692.000000	0.015347
691.000000	0.020640
690.000000	0.025552
689.000000	0.030814
688.000000	0.036684
687.000000	0.042395
686.000000	0.048026
685.000000	0.053721
684.000000	0.058862
683.000000	0.063285
682.000000	0.067276
681.000000	0.070443
680.000000	0.073555
679.000000	0.076445
678.000000	0.079134
677.000000	0.080823
676.000000	0.081722
675.000000	0.082551
674.000000	0.082964
673.000000	0.082591
672.000000	0.081463
671.000000	0.079887
670.000000	0.077890
669.000000	0.075716
668.000000	0.073181
667.000000	0.069802
666.000000	0.066256
665.000000	0.061934
664.000000	0.057621
663.000000	0.053977
662.000000	0.050223
661.000000	0.046317
660.000000	0.042718
659.000000	0.039488
658.000000	0.037009
657.000000	0.033997
656.000000	0.031135
655.000000	0.029563
654.000000	0.028233
653.000000	0.027243
652.000000	0.026728
651.000000	0.025962
650.000000	0.025425
649.000000	0.025286
648.000000	0.025112
647.000000	0.024775
646.000000	0.024869
645.000000	0.024478
644.000000	0.024509
643.000000	0.024319
642.000000	0.024317
641.000000	0.024313
640.000000	0.024354
639.000000	0.024104
638.000000	0.023990
637.000000	0.024605
636.000000	0.024621
635.000000	0.024307
634.000000	0.024215
633.000000	0.024729
632.000000	0.024440
631.000000	0.024041
630.000000	0.024295
629.000000	0.023946
628.000000	0.023457
627.000000	0.023482
626.000000	0.023174
625.000000	0.022758
624.000000	0.022816
623.000000	0.022432
622.000000	0.022198
621.000000	0.022201
620.000000	0.022022
619.000000	0.021543
618.000000	0.020972
617.000000	0.020295
616.000000	0.019613
615.000000	0.019026
614.000000	0.018223
613.000000	0.018146
612.000000	0.017630
611.000000	0.016867
610.000000	0.016573
609.000000	0.015758
608.000000	0.015704
607.000000	0.014613
606.000000	0.014779
605.000000	0.014890
604.000000	0.014936
603.000000	0.014812
602.000000	0.014276
601.000000	0.015235
600.000000	0.015087
599.000000	0.015600
598.000000	0.015665
597.000000	0.016377
596.000000	0.016758
595.000000	0.017320
594.000000	0.017687
593.000000	0.017792
592.000000	0.018225
591.000000	0.018298
590.000000	0.018576
589.000000	0.018242
588.000000	0.018737
587.000000	0.018657
586.000000	0.017734
585.000000	0.017953
584.000000	0.018056
583.000000	0.017974
582.000000	0.017273
581.000000	0.017160
580.000000	0.018022
579.000000	0.017655
578.000000	0.017523
577.000000	0.017863
576.000000	0.017616
575.000000	0.017922
574.000000	0.018520
573.000000	0.018895
572.000000	0.019457
571.000000	0.019501
570.000000	0.019930
569.000000	0.020972
568.000000	0.021477
567.000000	0.022054
566.000000	0.023072
565.000000	0.024141
564.000000	0.025671
563.000000	0.026153
562.000000	0.027306
561.000000	0.029301
560.000000	0.030561
559.000000	0.031448
558.000000	0.033126
557.000000	0.035293
556.000000	0.036023
555.000000	0.037391
554.000000	0.038883
553.000000	0.041071
552.000000	0.041661
551.000000	0.044151
550.000000	0.044861
549.000000	0.045898
548.000000	0.047735
547.000000	0.048584
546.000000	0.050092
545.000000	0.051260
544.000000	0.052507
543.000000	0.053813
542.000000	0.054586
541.000000	0.056192
540.000000	0.056928
539.000000	0.057658
538.000000	0.059252
537.000000	0.059868
536.000000	0.061094
535.000000	0.062044
534.000000	0.063116
533.000000	0.063727
532.000000	0.064318
531.000000	0.065199
530.000000	0.065879
529.000000	0.066427
528.000000	0.067286
527.000000	0.068177
526.000000	0.069110
525.000000	0.069646
524.000000	0.070102
523.000000	0.070031
522.000000	0.070985
521.000000	0.071326
520.000000	0.071974
519.000000	0.072423
518.000000	0.072692
517.000000	0.072990
516.000000	0.073977
515.000000	0.074578
514.000000	0.075415
513.000000	0.076286
512.000000	0.076809
511.000000	0.077471
510.000000	0.077622
509.000000	0.079056
508.000000	0.079840
507.000000	0.080996
506.000000	0.081892
505.000000	0.082878
504.000000	0.083711
503.000000	0.084087
502.000000	0.086021
501.000000	0.087338
500.000000	0.087748
499.000000	0.088793
498.000000	0.090091
497.000000	0.090286
496.000000	0.091780
495.000000	0.092013
494.000000	0.092329
493.000000	0.093009
492.000000	0.093449
491.000000	0.093642
490.000000	0.093856
489.000000	0.094678
488.000000	0.094529
487.000000	0.095346
486.000000	0.095761
485.000000	0.096164
484.000000	0.096850
483.000000	0.097614
482.000000	0.098917
481.000000	0.098964
480.000000	0.099534
479.000000	0.100543
478.000000	0.101875
477.000000	0.102771
476.000000	0.103816
475.000000	0.104797
474.000000	0.105807
473.000000	0.106434
472.000000	0.106988
471.000000	0.107869
470.000000	0.108551
469.000000	0.109346
468.000000	0.110038
467.000000	0.110518
466.000000	0.110838
465.000000	0.111094
464.000000	0.111096
463.000000	0.110989
462.000000	0.111110
461.000000	0.111454
460.000000	0.111679
459.000000	0.111016
458.000000	0.110775
457.000000	0.110912
456.000000	0.110794
455.000000	0.110041
454.000000	0.111006
453.000000	0.110733
452.000000	0.110737
451.000000	0.110882
450.000000	0.111032
449.000000	0.110807
448.000000	0.111771
447.000000	0.113172
446.000000	0.113949
445.000000	0.114262
444.000000	0.114516
443.000000	0.115394
442.000000	0.115937
441.000000	0.116194
440.000000	0.116666
439.000000	0.116510
438.000000	0.116660
437.000000	0.116920
436.000000	0.116794
435.000000	0.116299
434.000000	0.116279
433.000000	0.115861
432.000000	0.115102
431.000000	0.114787
430.000000	0.113927
429.000000	0.113112
428.000000	0.112575
427.000000	0.111400
426.000000	0.110656
425.000000	0.110637
424.000000	0.110266
423.000000	0.110063
422.000000	0.110386
421.000000	0.110031
420.000000	0.109245
419.000000	0.109529
418.000000	0.109364
417.000000	0.108256
416.000000	0.107880
415.000000	0.108326
414.000000	0.107442
413.000000	0.106655
412.000000	0.105604
411.000000	0.104293
410.000000	0.103330
409.000000	0.102393
408.000000	0.101735
407.000000	0.100007
406.000000	0.098846
405.000000	0.097811
404.000000	0.096258
403.000000	0.095442
402.000000	0.093951
401.000000	0.092759
400.000000	0.091580
399.000000	0.091365
398.000000	0.091081
397.000000	0.090441
396.000000	0.089708
395.000000	0.088639
394.000000	0.088184
393.000000	0.088471
392.000000	0.088390
391.000000	0.087726
390.000000	0.087407
389.000000	0.087667
388.000000	0.088128
387.000000	0.088132
386.000000	0.087934
385.000000	0.087276
384.000000	0.087124
383.000000	0.087882
382.000000	0.087713
381.000000	0.087040
380.000000	0.085942
379.000000	0.086012
378.000000	0.084943
377.000000	0.084237
376.000000	0.084299
375.000000	0.084527
374.000000	0.083203
373.000000	0.082230
372.000000	0.082067
371.000000	0.081697
370.000000	0.081018
369.000000	0.080408
368.000000	0.079679
367.000000	0.079441
366.000000	0.079501
365.000000	0.079328
364.000000	0.078541
363.000000	0.079183
362.000000	0.078942
361.000000	0.079765
360.000000	0.080248
359.000000	0.077654
358.000000	0.079050
357.000000	0.077560
356.000000	0.078971
355.000000	0.079957
354.000000	0.081636
353.000000	0.082247
352.000000	0.084984
351.000000	0.085092
350.000000	0.087248
349.000000	0.088562
348.000000	0.092542
347.000000	0.098284
346.000000	0.099600
345.000000	0.103583
344.000000	0.107726
343.000000	0.112232
342.000000	0.116317
341.000000	0.115986
340.000000	0.120474
339.000000	0.121055
338.000000	0.121801
337.000000	0.123968
336.000000	0.127652
335.000000	0.128446
334.000000	0.129896
333.000000	0.130887
332.000000	0.131237
331.000000	0.131689
330.000000	0.132930
329.000000	0.130099
328.000000	0.130603
327.000000	0.133581
326.000000	0.133810
325.000000	0.132289
324.000000	0.131280
323.000000	0.132519
322.000000	0.133899
321.000000	0.132352
320.000000	0.136584
319.000000	0.130397
318.000000	0.131222
317.000000	0.132241
316.000000	0.133064
315.000000	0.130638
314.000000	0.130906
313.000000	0.134340
312.000000	0.133217
311.000000	0.131926
310.000000	0.134972
309.000000	0.134404
308.000000	0.136700
307.000000	0.135306
306.000000	0.139732
305.000000	0.142734
304.000000	0.142956
303.000000	0.144560
302.000000	0.149949
301.000000	0.153471
300.000000	0.154804
