PE UV       SUBTECH     SPECTRUM    ASCII       PEDS        4.00        
   -1
PETIT_48.Sample.Raw.asc
20/12/15
11:15:30.00
20/12/15
11:15:30.00
CNRS
RCC2319_2717_C
300.000000
1
Lambda 850
850L1011221
PerkinElmer UV WinLab 6.0.3.0730 / 1.61.00 Lambda 800

0
0
2
0
0
UV/VIS
1
1
1
RBeamAtt,SBeamAtt,150mm sphere / downward view
0
0
0
0
Fix
 
0
0.2
0
0
0
 
 
 
0
 
0
319.2
0
Front
50
 
S:100 R:100
 
0
0
0
 
0
 
 
 
0
 
 
0
0
0
0
0
 
 
 
 
0
0


#HDR
-1
-1
#GR
nm
A
1.0
0.0
800.000000
-1.000000
501
8
0.245876
-0.014553
#DATA
800.000000	-0.014515
799.000000	-0.012412
798.000000	-0.012872
797.000000	-0.012350
796.000000	-0.013535
795.000000	-0.014553
794.000000	-0.012993
793.000000	-0.013601
792.000000	-0.013163
791.000000	-0.012908
790.000000	-0.013876
789.000000	-0.012820
788.000000	-0.013162
787.000000	-0.012426
786.000000	-0.013364
785.000000	-0.013889
784.000000	-0.012954
783.000000	-0.014301
782.000000	-0.012657
781.000000	-0.012910
780.000000	-0.013580
779.000000	-0.012839
778.000000	-0.012951
777.000000	-0.012715
776.000000	-0.012327
775.000000	-0.012737
774.000000	-0.012297
773.000000	-0.012930
772.000000	-0.011776
771.000000	-0.013084
770.000000	-0.012957
769.000000	-0.012173
768.000000	-0.011622
767.000000	-0.012188
766.000000	-0.011950
765.000000	-0.011934
764.000000	-0.013081
763.000000	-0.012370
762.000000	-0.012990
761.000000	-0.013066
760.000000	-0.013527
759.000000	-0.012849
758.000000	-0.011913
757.000000	-0.012292
756.000000	-0.013074
755.000000	-0.011306
754.000000	-0.011668
753.000000	-0.013629
752.000000	-0.013062
751.000000	-0.012940
750.000000	-0.012151
749.000000	-0.011794
748.000000	-0.011423
747.000000	-0.012002
746.000000	-0.012884
745.000000	-0.013010
744.000000	-0.013120
743.000000	-0.012486
742.000000	-0.012034
741.000000	-0.012679
740.000000	-0.011715
739.000000	-0.013007
738.000000	-0.012255
737.000000	-0.012618
736.000000	-0.012488
735.000000	-0.011766
734.000000	-0.011289
733.000000	-0.011037
732.000000	-0.011753
731.000000	-0.012047
730.000000	-0.011524
729.000000	-0.010922
728.000000	-0.010516
727.000000	-0.010163
726.000000	-0.009298
725.000000	-0.008828
724.000000	-0.008997
723.000000	-0.009337
722.000000	-0.008188
721.000000	-0.007459
720.000000	-0.006192
719.000000	-0.004634
718.000000	-0.003712
717.000000	-0.002252
716.000000	-0.000143
715.000000	0.001702
714.000000	0.003654
713.000000	0.005406
712.000000	0.007652
711.000000	0.009672
710.000000	0.012018
709.000000	0.014473
708.000000	0.016306
707.000000	0.018290
706.000000	0.020821
705.000000	0.023412
704.000000	0.026096
703.000000	0.028957
702.000000	0.031571
701.000000	0.034615
700.000000	0.038751
699.000000	0.042420
698.000000	0.046837
697.000000	0.051146
696.000000	0.055531
695.000000	0.060648
694.000000	0.066724
693.000000	0.072447
692.000000	0.078554
691.000000	0.084634
690.000000	0.091376
689.000000	0.098308
688.000000	0.105284
687.000000	0.111562
686.000000	0.117841
685.000000	0.124798
684.000000	0.130531
683.000000	0.135443
682.000000	0.140570
681.000000	0.144407
680.000000	0.146995
679.000000	0.149673
678.000000	0.152054
677.000000	0.153654
676.000000	0.154164
675.000000	0.154285
674.000000	0.153266
673.000000	0.151338
672.000000	0.148709
671.000000	0.145225
670.000000	0.141404
669.000000	0.136645
668.000000	0.131294
667.000000	0.124864
666.000000	0.118218
665.000000	0.111716
664.000000	0.104983
663.000000	0.099020
662.000000	0.092833
661.000000	0.086503
660.000000	0.080836
659.000000	0.075679
658.000000	0.071285
657.000000	0.066976
656.000000	0.063003
655.000000	0.059943
654.000000	0.057502
653.000000	0.055498
652.000000	0.053834
651.000000	0.052300
650.000000	0.051394
649.000000	0.050958
648.000000	0.050922
647.000000	0.050550
646.000000	0.050490
645.000000	0.050928
644.000000	0.051553
643.000000	0.052344
642.000000	0.052467
641.000000	0.052635
640.000000	0.053730
639.000000	0.054057
638.000000	0.054324
637.000000	0.054784
636.000000	0.054951
635.000000	0.054905
634.000000	0.054725
633.000000	0.054602
632.000000	0.054105
631.000000	0.053620
630.000000	0.053384
629.000000	0.052633
628.000000	0.052115
627.000000	0.051529
626.000000	0.050816
625.000000	0.050888
624.000000	0.050321
623.000000	0.049560
622.000000	0.049049
621.000000	0.048472
620.000000	0.047616
619.000000	0.046794
618.000000	0.045970
617.000000	0.044821
616.000000	0.043466
615.000000	0.042287
614.000000	0.041280
613.000000	0.040244
612.000000	0.039572
611.000000	0.038249
610.000000	0.037293
609.000000	0.035445
608.000000	0.034926
607.000000	0.033582
606.000000	0.033739
605.000000	0.033119
604.000000	0.032453
603.000000	0.032285
602.000000	0.031857
601.000000	0.032322
600.000000	0.032009
599.000000	0.032408
598.000000	0.032058
597.000000	0.032104
596.000000	0.032945
595.000000	0.033124
594.000000	0.033188
593.000000	0.033951
592.000000	0.034413
591.000000	0.034861
590.000000	0.034987
589.000000	0.034520
588.000000	0.035235
587.000000	0.035429
586.000000	0.034939
585.000000	0.035212
584.000000	0.035689
583.000000	0.034791
582.000000	0.035057
581.000000	0.035268
580.000000	0.035491
579.000000	0.035269
578.000000	0.035697
577.000000	0.036576
576.000000	0.036774
575.000000	0.037634
574.000000	0.038542
573.000000	0.039479
572.000000	0.039829
571.000000	0.040453
570.000000	0.041568
569.000000	0.042943
568.000000	0.044118
567.000000	0.044727
566.000000	0.046225
565.000000	0.047592
564.000000	0.049428
563.000000	0.050313
562.000000	0.052502
561.000000	0.054660
560.000000	0.056432
559.000000	0.058572
558.000000	0.060891
557.000000	0.063450
556.000000	0.065588
555.000000	0.067264
554.000000	0.069295
553.000000	0.071818
552.000000	0.072696
551.000000	0.074872
550.000000	0.075826
549.000000	0.077368
548.000000	0.078447
547.000000	0.078983
546.000000	0.079798
545.000000	0.080654
544.000000	0.081446
543.000000	0.081786
542.000000	0.082154
541.000000	0.082501
540.000000	0.082640
539.000000	0.083060
538.000000	0.083350
537.000000	0.083670
536.000000	0.084062
535.000000	0.084586
534.000000	0.085029
533.000000	0.085274
532.000000	0.085950
531.000000	0.086065
530.000000	0.086463
529.000000	0.087027
528.000000	0.087735
527.000000	0.088570
526.000000	0.089791
525.000000	0.090113
524.000000	0.091088
523.000000	0.091930
522.000000	0.092884
521.000000	0.093436
520.000000	0.094626
519.000000	0.096206
518.000000	0.097492
517.000000	0.099025
516.000000	0.101558
515.000000	0.103134
514.000000	0.105405
513.000000	0.107807
512.000000	0.110046
511.000000	0.111834
510.000000	0.113732
509.000000	0.116741
508.000000	0.119846
507.000000	0.122680
506.000000	0.126272
505.000000	0.129248
504.000000	0.132059
503.000000	0.134885
502.000000	0.138489
501.000000	0.141390
500.000000	0.144342
499.000000	0.146412
498.000000	0.149001
497.000000	0.150727
496.000000	0.152629
495.000000	0.153982
494.000000	0.155793
493.000000	0.156890
492.000000	0.158039
491.000000	0.158312
490.000000	0.158236
489.000000	0.159061
488.000000	0.158615
487.000000	0.159117
486.000000	0.159415
485.000000	0.159653
484.000000	0.159928
483.000000	0.160369
482.000000	0.161329
481.000000	0.161317
480.000000	0.162150
479.000000	0.162660
478.000000	0.164725
477.000000	0.166408
476.000000	0.168715
475.000000	0.170871
474.000000	0.173355
473.000000	0.175567
472.000000	0.177534
471.000000	0.180320
470.000000	0.183128
469.000000	0.185434
468.000000	0.187603
467.000000	0.190199
466.000000	0.191881
465.000000	0.192977
464.000000	0.194724
463.000000	0.195928
462.000000	0.196304
461.000000	0.197653
460.000000	0.198232
459.000000	0.198619
458.000000	0.198944
457.000000	0.200133
456.000000	0.200535
455.000000	0.201883
454.000000	0.203698
453.000000	0.204937
452.000000	0.207456
451.000000	0.210047
450.000000	0.212596
449.000000	0.215558
448.000000	0.220081
447.000000	0.223986
446.000000	0.227994
445.000000	0.231560
444.000000	0.234250
443.000000	0.237654
442.000000	0.240902
441.000000	0.243077
440.000000	0.244078
439.000000	0.244558
438.000000	0.245289
437.000000	0.245876
436.000000	0.245356
435.000000	0.244411
434.000000	0.243669
433.000000	0.242270
432.000000	0.240804
431.000000	0.239194
430.000000	0.237343
429.000000	0.235947
428.000000	0.234415
427.000000	0.232927
426.000000	0.232308
425.000000	0.231582
424.000000	0.231076
423.000000	0.231495
422.000000	0.231357
421.000000	0.231062
420.000000	0.230835
419.000000	0.231024
418.000000	0.231354
417.000000	0.231063
416.000000	0.230447
415.000000	0.230436
414.000000	0.230051
413.000000	0.229523
412.000000	0.228083
411.000000	0.225897
410.000000	0.224891
409.000000	0.223709
408.000000	0.221362
407.000000	0.219289
406.000000	0.217235
405.000000	0.214915
404.000000	0.213226
403.000000	0.210759
402.000000	0.208684
401.000000	0.207691
400.000000	0.205844
399.000000	0.204515
398.000000	0.202982
397.000000	0.201921
396.000000	0.200761
395.000000	0.199720
394.000000	0.199095
393.000000	0.198824
392.000000	0.197857
391.000000	0.197309
390.000000	0.197010
389.000000	0.196428
388.000000	0.196261
387.000000	0.195098
386.000000	0.193319
385.000000	0.191936
384.000000	0.191513
383.000000	0.190930
382.000000	0.190578
381.000000	0.189065
380.000000	0.186128
379.000000	0.185314
378.000000	0.179994
377.000000	0.177498
376.000000	0.175855
375.000000	0.172939
374.000000	0.170242
373.000000	0.168190
372.000000	0.167686
371.000000	0.164786
370.000000	0.163588
369.000000	0.163601
368.000000	0.162733
367.000000	0.159831
366.000000	0.158751
365.000000	0.156271
364.000000	0.154985
363.000000	0.155334
362.000000	0.151349
361.000000	0.149871
360.000000	0.150631
359.000000	0.149111
358.000000	0.147587
357.000000	0.144044
356.000000	0.144030
355.000000	0.143564
354.000000	0.142518
353.000000	0.140918
352.000000	0.141706
351.000000	0.139157
350.000000	0.139748
349.000000	0.140117
348.000000	0.139696
347.000000	0.142621
346.000000	0.142180
345.000000	0.144642
344.000000	0.146459
343.000000	0.144510
342.000000	0.146180
341.000000	0.142999
340.000000	0.146384
339.000000	0.145126
338.000000	0.145243
337.000000	0.143922
336.000000	0.144898
335.000000	0.147400
334.000000	0.147386
333.000000	0.147123
332.000000	0.143473
331.000000	0.145036
330.000000	0.143965
329.000000	0.143632
328.000000	0.141466
327.000000	0.144328
326.000000	0.142906
325.000000	0.144027
324.000000	0.142357
323.000000	0.142585
322.000000	0.144826
321.000000	0.143348
320.000000	0.141055
319.000000	0.138796
318.000000	0.138525
317.000000	0.139968
316.000000	0.141886
315.000000	0.141252
314.000000	0.139853
313.000000	0.141443
312.000000	0.140397
311.000000	0.141160
310.000000	0.144924
309.000000	0.146196
308.000000	0.149238
307.000000	0.151764
306.000000	0.153891
305.000000	0.157833
304.000000	0.161346
303.000000	0.162809
302.000000	0.171269
301.000000	0.175897
300.000000	0.181273
