PE UV       SUBTECH     SPECTRUM    ASCII       PEDS        4.00        
   -1
PETIT_28.Sample.Raw.asc
20/12/15
09:33:14.00
20/12/15
09:33:14.00
CNRS
RCC2379_A_DM
300.000000
1
Lambda 850
850L1011221
PerkinElmer UV WinLab 6.0.3.0730 / 1.61.00 Lambda 800

0
0
2
0
0
UV/VIS
1
1
1
RBeamAtt,SBeamAtt,150mm sphere / downward view
0
0
0
0
Fix
 
0
0.2
0
0
0
 
 
 
0
 
0
319.2
0
Front
50
 
S:100 R:100
 
0
0
0
 
0
 
 
 
0
 
 
0
0
0
0
0
 
 
 
 
0
0


#HDR
-1
-1
#GR
nm
A
1.0
0.0
800.000000
-1.000000
501
8
0.086782
-0.015084
#DATA
800.000000	-0.012878
799.000000	-0.015084
798.000000	-0.014831
797.000000	-0.013601
796.000000	-0.014309
795.000000	-0.014462
794.000000	-0.013904
793.000000	-0.014133
792.000000	-0.013605
791.000000	-0.012346
790.000000	-0.013964
789.000000	-0.013898
788.000000	-0.013681
787.000000	-0.012877
786.000000	-0.015063
785.000000	-0.014632
784.000000	-0.013872
783.000000	-0.014095
782.000000	-0.012864
781.000000	-0.012731
780.000000	-0.014451
779.000000	-0.014366
778.000000	-0.013704
777.000000	-0.014251
776.000000	-0.013946
775.000000	-0.012049
774.000000	-0.013685
773.000000	-0.013730
772.000000	-0.013807
771.000000	-0.013962
770.000000	-0.013627
769.000000	-0.011420
768.000000	-0.013760
767.000000	-0.013382
766.000000	-0.012983
765.000000	-0.013758
764.000000	-0.013990
763.000000	-0.013559
762.000000	-0.014830
761.000000	-0.013612
760.000000	-0.013552
759.000000	-0.013007
758.000000	-0.013794
757.000000	-0.014128
756.000000	-0.014766
755.000000	-0.013049
754.000000	-0.013722
753.000000	-0.014399
752.000000	-0.014576
751.000000	-0.014674
750.000000	-0.014144
749.000000	-0.012658
748.000000	-0.012891
747.000000	-0.013184
746.000000	-0.013374
745.000000	-0.014255
744.000000	-0.014763
743.000000	-0.014171
742.000000	-0.014048
741.000000	-0.013753
740.000000	-0.013186
739.000000	-0.014452
738.000000	-0.013159
737.000000	-0.013331
736.000000	-0.013507
735.000000	-0.013941
734.000000	-0.013407
733.000000	-0.014358
732.000000	-0.014711
731.000000	-0.014358
730.000000	-0.014771
729.000000	-0.014651
728.000000	-0.014616
727.000000	-0.014245
726.000000	-0.014089
725.000000	-0.014574
724.000000	-0.014495
723.000000	-0.014789
722.000000	-0.014630
721.000000	-0.014388
720.000000	-0.014682
719.000000	-0.014653
718.000000	-0.014684
717.000000	-0.015006
716.000000	-0.014706
715.000000	-0.014638
714.000000	-0.014541
713.000000	-0.014679
712.000000	-0.014567
711.000000	-0.014262
710.000000	-0.013871
709.000000	-0.013705
708.000000	-0.013732
707.000000	-0.013534
706.000000	-0.012820
705.000000	-0.012832
704.000000	-0.012164
703.000000	-0.011597
702.000000	-0.011175
701.000000	-0.010724
700.000000	-0.009728
699.000000	-0.008782
698.000000	-0.007823
697.000000	-0.006573
696.000000	-0.005355
695.000000	-0.003563
694.000000	-0.001821
693.000000	-0.000082
692.000000	0.002334
691.000000	0.004673
690.000000	0.006674
689.000000	0.009019
688.000000	0.011567
687.000000	0.013907
686.000000	0.015774
685.000000	0.018254
684.000000	0.020775
683.000000	0.022640
682.000000	0.024412
681.000000	0.024973
680.000000	0.024869
679.000000	0.025294
678.000000	0.025933
677.000000	0.025694
676.000000	0.024984
675.000000	0.024491
674.000000	0.023385
673.000000	0.022247
672.000000	0.021105
671.000000	0.019980
670.000000	0.019144
669.000000	0.017778
668.000000	0.016001
667.000000	0.014413
666.000000	0.013019
665.000000	0.011090
664.000000	0.009245
663.000000	0.007628
662.000000	0.006037
661.000000	0.004346
660.000000	0.002891
659.000000	0.001948
658.000000	0.001529
657.000000	0.000707
656.000000	-0.000385
655.000000	-0.000835
654.000000	-0.001233
653.000000	-0.001902
652.000000	-0.002296
651.000000	-0.002869
650.000000	-0.002910
649.000000	-0.002888
648.000000	-0.002649
647.000000	-0.002923
646.000000	-0.002921
645.000000	-0.002674
644.000000	-0.002156
643.000000	-0.002092
642.000000	-0.002467
641.000000	-0.002778
640.000000	-0.001833
639.000000	-0.001907
638.000000	-0.001777
637.000000	-0.001347
636.000000	-0.001274
635.000000	-0.001174
634.000000	-0.001781
633.000000	-0.001525
632.000000	-0.001306
631.000000	-0.001206
630.000000	-0.000980
629.000000	-0.001438
628.000000	-0.001678
627.000000	-0.001509
626.000000	-0.001986
625.000000	-0.001872
624.000000	-0.002010
623.000000	-0.002028
622.000000	-0.002288
621.000000	-0.002361
620.000000	-0.002667
619.000000	-0.002762
618.000000	-0.003123
617.000000	-0.003467
616.000000	-0.003838
615.000000	-0.003905
614.000000	-0.004329
613.000000	-0.004462
612.000000	-0.004423
611.000000	-0.004912
610.000000	-0.004846
609.000000	-0.005330
608.000000	-0.005596
607.000000	-0.005716
606.000000	-0.005555
605.000000	-0.005586
604.000000	-0.005954
603.000000	-0.005639
602.000000	-0.006498
601.000000	-0.006403
600.000000	-0.006481
599.000000	-0.006071
598.000000	-0.006391
597.000000	-0.006466
596.000000	-0.006654
595.000000	-0.006545
594.000000	-0.006727
593.000000	-0.006461
592.000000	-0.006685
591.000000	-0.006648
590.000000	-0.006538
589.000000	-0.006479
588.000000	-0.006553
587.000000	-0.006565
586.000000	-0.007113
585.000000	-0.006765
584.000000	-0.006175
583.000000	-0.006553
582.000000	-0.006728
581.000000	-0.006591
580.000000	-0.006144
579.000000	-0.006312
578.000000	-0.005948
577.000000	-0.005764
576.000000	-0.005505
575.000000	-0.004634
574.000000	-0.003941
573.000000	-0.003953
572.000000	-0.003368
571.000000	-0.002860
570.000000	-0.002852
569.000000	-0.002291
568.000000	-0.001051
567.000000	-0.001295
566.000000	-0.000271
565.000000	-0.000633
564.000000	0.000439
563.000000	0.000243
562.000000	0.000616
561.000000	0.000902
560.000000	0.000812
559.000000	0.000904
558.000000	0.001267
557.000000	0.001692
556.000000	0.001641
555.000000	0.001776
554.000000	0.001828
553.000000	0.003003
552.000000	0.002165
551.000000	0.003222
550.000000	0.002435
549.000000	0.002700
548.000000	0.003259
547.000000	0.003204
546.000000	0.003853
545.000000	0.003934
544.000000	0.004286
543.000000	0.004487
542.000000	0.003619
541.000000	0.004620
540.000000	0.004483
539.000000	0.004697
538.000000	0.004897
537.000000	0.005079
536.000000	0.005568
535.000000	0.005838
534.000000	0.005502
533.000000	0.005796
532.000000	0.005923
531.000000	0.006371
530.000000	0.006714
529.000000	0.006816
528.000000	0.007234
527.000000	0.007827
526.000000	0.008665
525.000000	0.009027
524.000000	0.009555
523.000000	0.010021
522.000000	0.011176
521.000000	0.012242
520.000000	0.013060
519.000000	0.014033
518.000000	0.015116
517.000000	0.016505
516.000000	0.018530
515.000000	0.019160
514.000000	0.020599
513.000000	0.022708
512.000000	0.024255
511.000000	0.025600
510.000000	0.027131
509.000000	0.028737
508.000000	0.030648
507.000000	0.032775
506.000000	0.034530
505.000000	0.037006
504.000000	0.038095
503.000000	0.040348
502.000000	0.042373
501.000000	0.044672
500.000000	0.046228
499.000000	0.047407
498.000000	0.049008
497.000000	0.050176
496.000000	0.051639
495.000000	0.051973
494.000000	0.052109
493.000000	0.052808
492.000000	0.053033
491.000000	0.052949
490.000000	0.052723
489.000000	0.052766
488.000000	0.052241
487.000000	0.052116
486.000000	0.051722
485.000000	0.051334
484.000000	0.050854
483.000000	0.050866
482.000000	0.050985
481.000000	0.050574
480.000000	0.050661
479.000000	0.050416
478.000000	0.050507
477.000000	0.051129
476.000000	0.051602
475.000000	0.052229
474.000000	0.052899
473.000000	0.053519
472.000000	0.053556
471.000000	0.054134
470.000000	0.055228
469.000000	0.056000
468.000000	0.056730
467.000000	0.057381
466.000000	0.058263
465.000000	0.058901
464.000000	0.059169
463.000000	0.059400
462.000000	0.059728
461.000000	0.060244
460.000000	0.060868
459.000000	0.061197
458.000000	0.060849
457.000000	0.061379
456.000000	0.062122
455.000000	0.062725
454.000000	0.064058
453.000000	0.065104
452.000000	0.066675
451.000000	0.067778
450.000000	0.069130
449.000000	0.070877
448.000000	0.073369
447.000000	0.075502
446.000000	0.077589
445.000000	0.079504
444.000000	0.081183
443.000000	0.083217
442.000000	0.084348
441.000000	0.084966
440.000000	0.086012
439.000000	0.086080
438.000000	0.086617
437.000000	0.086782
436.000000	0.086670
435.000000	0.085863
434.000000	0.085402
433.000000	0.084757
432.000000	0.083747
431.000000	0.083012
430.000000	0.082319
429.000000	0.081606
428.000000	0.080828
427.000000	0.079931
426.000000	0.079538
425.000000	0.079168
424.000000	0.078379
423.000000	0.078349
422.000000	0.078438
421.000000	0.078225
420.000000	0.077557
419.000000	0.077215
418.000000	0.076837
417.000000	0.076206
416.000000	0.075811
415.000000	0.076100
414.000000	0.075103
413.000000	0.074477
412.000000	0.074096
411.000000	0.073437
410.000000	0.073353
409.000000	0.072597
408.000000	0.072441
407.000000	0.071680
406.000000	0.070659
405.000000	0.070890
404.000000	0.070755
403.000000	0.070165
402.000000	0.069883
401.000000	0.069873
400.000000	0.069659
399.000000	0.070180
398.000000	0.070934
397.000000	0.071433
396.000000	0.071070
395.000000	0.070681
394.000000	0.071212
393.000000	0.071692
392.000000	0.071708
391.000000	0.072395
390.000000	0.072561
389.000000	0.071730
388.000000	0.071388
387.000000	0.070808
386.000000	0.070027
385.000000	0.068998
384.000000	0.068495
383.000000	0.067140
382.000000	0.065040
381.000000	0.062977
380.000000	0.060895
379.000000	0.060177
378.000000	0.058331
377.000000	0.055166
376.000000	0.052605
375.000000	0.049829
374.000000	0.045830
373.000000	0.044185
372.000000	0.042286
371.000000	0.039272
370.000000	0.036294
369.000000	0.035869
368.000000	0.034300
367.000000	0.032855
366.000000	0.031315
365.000000	0.029431
364.000000	0.027660
363.000000	0.025977
362.000000	0.023438
361.000000	0.023367
360.000000	0.023810
359.000000	0.023134
358.000000	0.023265
357.000000	0.021375
356.000000	0.019881
355.000000	0.019411
354.000000	0.017988
353.000000	0.017688
352.000000	0.018411
351.000000	0.017689
350.000000	0.013503
349.000000	0.015476
348.000000	0.016499
347.000000	0.017421
346.000000	0.016704
345.000000	0.018075
344.000000	0.017944
343.000000	0.018527
342.000000	0.016784
341.000000	0.016599
340.000000	0.019628
339.000000	0.017965
338.000000	0.019039
337.000000	0.017334
336.000000	0.017011
335.000000	0.016810
334.000000	0.016847
333.000000	0.019315
332.000000	0.018117
331.000000	0.015477
330.000000	0.014721
329.000000	0.016189
328.000000	0.014524
327.000000	0.017875
326.000000	0.018042
325.000000	0.014842
324.000000	0.012539
323.000000	0.016473
322.000000	0.021300
321.000000	0.017885
320.000000	0.017751
319.000000	0.017333
318.000000	0.017724
317.000000	0.019748
316.000000	0.022099
315.000000	0.022003
314.000000	0.021152
313.000000	0.022960
312.000000	0.023413
311.000000	0.025041
310.000000	0.029901
309.000000	0.031485
308.000000	0.036853
307.000000	0.037025
306.000000	0.040385
305.000000	0.042989
304.000000	0.049821
303.000000	0.048528
302.000000	0.054795
301.000000	0.060014
300.000000	0.063828
