PE UV       SUBTECH     SPECTRUM    ASCII       PEDS        4.00        
   -1
PETIT_27.Sample.Raw.asc
20/12/15
09:29:39.00
20/12/15
09:29:39.00
CNRS
RCC0156_A_DM
300.000000
1
Lambda 850
850L1011221
PerkinElmer UV WinLab 6.0.3.0730 / 1.61.00 Lambda 800

0
0
2
0
0
UV/VIS
1
1
1
RBeamAtt,SBeamAtt,150mm sphere / downward view
0
0
0
0
Fix
 
0
0.2
0
0
0
 
 
 
0
 
0
319.2
0
Front
50
 
S:100 R:100
 
0
0
0
 
0
 
 
 
0
 
 
0
0
0
0
0
 
 
 
 
0
0


#HDR
-1
-1
#GR
nm
A
1.0
0.0
800.000000
-1.000000
501
8
0.190165
-0.014636
#DATA
800.000000	-0.013053
799.000000	-0.011740
798.000000	-0.013203
797.000000	-0.012813
796.000000	-0.013293
795.000000	-0.014500
794.000000	-0.013313
793.000000	-0.014445
792.000000	-0.012959
791.000000	-0.012737
790.000000	-0.012394
789.000000	-0.013849
788.000000	-0.013037
787.000000	-0.012873
786.000000	-0.013906
785.000000	-0.012861
784.000000	-0.012655
783.000000	-0.013859
782.000000	-0.012507
781.000000	-0.013371
780.000000	-0.013747
779.000000	-0.013263
778.000000	-0.011546
777.000000	-0.013403
776.000000	-0.012475
775.000000	-0.012325
774.000000	-0.012985
773.000000	-0.013289
772.000000	-0.012801
771.000000	-0.013039
770.000000	-0.013410
769.000000	-0.012249
768.000000	-0.013098
767.000000	-0.012140
766.000000	-0.012205
765.000000	-0.012552
764.000000	-0.013888
763.000000	-0.013571
762.000000	-0.013512
761.000000	-0.013613
760.000000	-0.014004
759.000000	-0.013074
758.000000	-0.013790
757.000000	-0.013803
756.000000	-0.013908
755.000000	-0.012125
754.000000	-0.013125
753.000000	-0.013525
752.000000	-0.013398
751.000000	-0.013927
750.000000	-0.012904
749.000000	-0.012055
748.000000	-0.012967
747.000000	-0.012277
746.000000	-0.013668
745.000000	-0.013686
744.000000	-0.013757
743.000000	-0.013286
742.000000	-0.012801
741.000000	-0.013338
740.000000	-0.012634
739.000000	-0.013820
738.000000	-0.013493
737.000000	-0.013652
736.000000	-0.013646
735.000000	-0.013403
734.000000	-0.013248
733.000000	-0.013696
732.000000	-0.013951
731.000000	-0.013374
730.000000	-0.013925
729.000000	-0.013521
728.000000	-0.013429
727.000000	-0.013615
726.000000	-0.013899
725.000000	-0.013971
724.000000	-0.013795
723.000000	-0.013958
722.000000	-0.013497
721.000000	-0.013283
720.000000	-0.013954
719.000000	-0.014000
718.000000	-0.014281
717.000000	-0.014636
716.000000	-0.013873
715.000000	-0.013620
714.000000	-0.013524
713.000000	-0.013816
712.000000	-0.013514
711.000000	-0.013907
710.000000	-0.013746
709.000000	-0.013628
708.000000	-0.012882
707.000000	-0.012496
706.000000	-0.012185
705.000000	-0.011742
704.000000	-0.011390
703.000000	-0.011424
702.000000	-0.010851
701.000000	-0.010205
700.000000	-0.009473
699.000000	-0.008487
698.000000	-0.007386
697.000000	-0.006506
696.000000	-0.005167
695.000000	-0.003980
694.000000	-0.001844
693.000000	0.000429
692.000000	0.002623
691.000000	0.005059
690.000000	0.008031
689.000000	0.011234
688.000000	0.014158
687.000000	0.017313
686.000000	0.020284
685.000000	0.023738
684.000000	0.026826
683.000000	0.029674
682.000000	0.032765
681.000000	0.034842
680.000000	0.036592
679.000000	0.038345
678.000000	0.040537
677.000000	0.042366
676.000000	0.043224
675.000000	0.043825
674.000000	0.043815
673.000000	0.043772
672.000000	0.043282
671.000000	0.042240
670.000000	0.041309
669.000000	0.039628
668.000000	0.037922
667.000000	0.035722
666.000000	0.033410
665.000000	0.031008
664.000000	0.028457
663.000000	0.026183
662.000000	0.024204
661.000000	0.022237
660.000000	0.020543
659.000000	0.019024
658.000000	0.018306
657.000000	0.017265
656.000000	0.015844
655.000000	0.015209
654.000000	0.014670
653.000000	0.014135
652.000000	0.013442
651.000000	0.012277
650.000000	0.011587
649.000000	0.011546
648.000000	0.010709
647.000000	0.009519
646.000000	0.009204
645.000000	0.008548
644.000000	0.007847
643.000000	0.007259
642.000000	0.006181
641.000000	0.005338
640.000000	0.005478
639.000000	0.004845
638.000000	0.004039
637.000000	0.004462
636.000000	0.004298
635.000000	0.003528
634.000000	0.003397
633.000000	0.003603
632.000000	0.003236
631.000000	0.002949
630.000000	0.002959
629.000000	0.002712
628.000000	0.002389
627.000000	0.002110
626.000000	0.001937
625.000000	0.001904
624.000000	0.001673
623.000000	0.001472
622.000000	0.001346
621.000000	0.001004
620.000000	0.001139
619.000000	0.000574
618.000000	0.000282
617.000000	0.000368
616.000000	0.000347
615.000000	-0.000083
614.000000	-0.000080
613.000000	-0.000413
612.000000	-0.000473
611.000000	-0.000853
610.000000	-0.000677
609.000000	-0.001079
608.000000	-0.001181
607.000000	-0.001723
606.000000	-0.001116
605.000000	-0.001090
604.000000	-0.001599
603.000000	-0.001620
602.000000	-0.002184
601.000000	-0.001721
600.000000	-0.001708
599.000000	-0.001307
598.000000	-0.002601
597.000000	-0.002475
596.000000	-0.002550
595.000000	-0.002327
594.000000	-0.002581
593.000000	-0.002726
592.000000	-0.002594
591.000000	-0.002959
590.000000	-0.002929
589.000000	-0.003391
588.000000	-0.003474
587.000000	-0.003375
586.000000	-0.004234
585.000000	-0.004015
584.000000	-0.003827
583.000000	-0.004367
582.000000	-0.004772
581.000000	-0.004730
580.000000	-0.005077
579.000000	-0.005125
578.000000	-0.005248
577.000000	-0.005225
576.000000	-0.005128
575.000000	-0.004967
574.000000	-0.004636
573.000000	-0.005008
572.000000	-0.005547
571.000000	-0.005535
570.000000	-0.005834
569.000000	-0.005594
568.000000	-0.005338
567.000000	-0.005651
566.000000	-0.005278
565.000000	-0.005217
564.000000	-0.005101
563.000000	-0.005051
562.000000	-0.004268
561.000000	-0.004408
560.000000	-0.004437
559.000000	-0.003881
558.000000	-0.003611
557.000000	-0.002677
556.000000	-0.002863
555.000000	-0.002605
554.000000	-0.002620
553.000000	-0.001687
552.000000	-0.002393
551.000000	-0.001140
550.000000	-0.000731
549.000000	-0.000048
548.000000	0.000211
547.000000	0.000574
546.000000	0.001253
545.000000	0.001712
544.000000	0.002551
543.000000	0.003027
542.000000	0.003587
541.000000	0.004563
540.000000	0.004503
539.000000	0.005728
538.000000	0.006717
537.000000	0.007417
536.000000	0.008474
535.000000	0.009436
534.000000	0.011074
533.000000	0.011320
532.000000	0.012868
531.000000	0.013422
530.000000	0.014749
529.000000	0.016111
528.000000	0.017567
527.000000	0.019488
526.000000	0.022067
525.000000	0.023279
524.000000	0.025203
523.000000	0.026802
522.000000	0.029239
521.000000	0.031654
520.000000	0.034334
519.000000	0.036624
518.000000	0.039369
517.000000	0.042564
516.000000	0.045958
515.000000	0.048834
514.000000	0.052837
513.000000	0.056064
512.000000	0.059408
511.000000	0.062909
510.000000	0.066111
509.000000	0.070377
508.000000	0.074368
507.000000	0.078320
506.000000	0.082503
505.000000	0.085893
504.000000	0.089019
503.000000	0.092202
502.000000	0.095932
501.000000	0.099088
500.000000	0.102140
499.000000	0.104851
498.000000	0.107982
497.000000	0.110508
496.000000	0.113307
495.000000	0.114904
494.000000	0.116446
493.000000	0.118612
492.000000	0.121131
491.000000	0.122691
490.000000	0.124226
489.000000	0.126056
488.000000	0.127029
487.000000	0.128305
486.000000	0.130105
485.000000	0.131186
484.000000	0.132477
483.000000	0.133379
482.000000	0.134893
481.000000	0.135712
480.000000	0.137160
479.000000	0.138430
478.000000	0.140307
477.000000	0.141958
476.000000	0.144049
475.000000	0.145840
474.000000	0.148049
473.000000	0.149953
472.000000	0.151580
471.000000	0.153322
470.000000	0.155896
469.000000	0.158105
468.000000	0.160185
467.000000	0.162467
466.000000	0.164482
465.000000	0.166665
464.000000	0.168534
463.000000	0.170146
462.000000	0.171695
461.000000	0.173723
460.000000	0.175542
459.000000	0.177247
458.000000	0.179050
457.000000	0.180192
456.000000	0.181803
455.000000	0.183070
454.000000	0.184617
453.000000	0.185890
452.000000	0.186898
451.000000	0.187641
450.000000	0.188339
449.000000	0.188342
448.000000	0.189361
447.000000	0.190165
446.000000	0.190006
445.000000	0.190077
444.000000	0.189800
443.000000	0.189588
442.000000	0.188725
441.000000	0.187707
440.000000	0.187178
439.000000	0.186278
438.000000	0.185462
437.000000	0.184054
436.000000	0.183204
435.000000	0.182702
434.000000	0.181961
433.000000	0.180737
432.000000	0.179903
431.000000	0.179313
430.000000	0.178402
429.000000	0.176903
428.000000	0.175855
427.000000	0.174647
426.000000	0.173662
425.000000	0.172229
424.000000	0.170301
423.000000	0.169369
422.000000	0.168470
421.000000	0.166682
420.000000	0.164714
419.000000	0.163528
418.000000	0.162384
417.000000	0.160137
416.000000	0.157720
415.000000	0.157334
414.000000	0.156018
413.000000	0.154347
412.000000	0.153450
411.000000	0.152353
410.000000	0.151754
409.000000	0.150553
408.000000	0.149763
407.000000	0.149138
406.000000	0.147767
405.000000	0.147765
404.000000	0.147517
403.000000	0.146722
402.000000	0.146486
401.000000	0.146603
400.000000	0.146443
399.000000	0.146511
398.000000	0.146629
397.000000	0.147143
396.000000	0.146768
395.000000	0.145994
394.000000	0.145796
393.000000	0.146015
392.000000	0.146405
391.000000	0.146610
390.000000	0.146365
389.000000	0.144558
388.000000	0.143614
387.000000	0.142255
386.000000	0.140296
385.000000	0.137534
384.000000	0.135236
383.000000	0.133109
382.000000	0.130790
381.000000	0.127537
380.000000	0.123162
379.000000	0.120163
378.000000	0.114668
377.000000	0.110108
376.000000	0.106579
375.000000	0.103365
374.000000	0.100974
373.000000	0.094680
372.000000	0.089706
371.000000	0.087927
370.000000	0.084732
369.000000	0.083981
368.000000	0.080818
367.000000	0.077826
366.000000	0.074919
365.000000	0.072374
364.000000	0.070184
363.000000	0.069371
362.000000	0.067336
361.000000	0.064738
360.000000	0.064470
359.000000	0.063479
358.000000	0.062082
357.000000	0.059596
356.000000	0.059873
355.000000	0.059027
354.000000	0.057662
353.000000	0.058678
352.000000	0.056913
351.000000	0.057028
350.000000	0.054219
349.000000	0.054397
348.000000	0.056720
347.000000	0.056456
346.000000	0.055007
345.000000	0.055398
344.000000	0.054897
343.000000	0.054920
342.000000	0.054915
341.000000	0.054897
340.000000	0.058553
339.000000	0.056814
338.000000	0.055026
337.000000	0.052714
336.000000	0.053749
335.000000	0.054764
334.000000	0.052758
333.000000	0.052260
332.000000	0.052882
331.000000	0.049975
330.000000	0.050259
329.000000	0.048834
328.000000	0.048404
327.000000	0.049743
326.000000	0.051529
325.000000	0.050877
324.000000	0.049608
323.000000	0.051257
322.000000	0.052834
321.000000	0.052655
320.000000	0.053504
319.000000	0.052962
318.000000	0.051256
317.000000	0.051503
316.000000	0.053146
315.000000	0.053886
314.000000	0.054807
313.000000	0.057684
312.000000	0.056527
311.000000	0.059918
310.000000	0.061491
309.000000	0.063323
308.000000	0.066785
307.000000	0.066884
306.000000	0.068752
305.000000	0.073091
304.000000	0.075967
303.000000	0.078524
302.000000	0.085434
301.000000	0.089723
300.000000	0.092379
