PE UV       SUBTECH     SPECTRUM    ASCII       PEDS        4.00        
   -1
PETIT_26.Sample.Raw.asc
20/12/15
09:25:58.00
20/12/15
09:25:58.00
CNRS
RCC9511_A_DM
300.000000
1
Lambda 850
850L1011221
PerkinElmer UV WinLab 6.0.3.0730 / 1.61.00 Lambda 800

0
0
2
0
0
UV/VIS
1
1
1
RBeamAtt,SBeamAtt,150mm sphere / downward view
0
0
0
0
Fix
 
0
0.2
0
0
0
 
 
 
0
 
0
319.2
0
Front
50
 
S:100 R:100
 
0
0
0
 
0
 
 
 
0
 
 
0
0
0
0
0
 
 
 
 
0
0


#HDR
-1
-1
#GR
nm
A
1.0
0.0
800.000000
-1.000000
501
8
0.156341
-0.011351
#DATA
800.000000	-0.009151
799.000000	-0.008490
798.000000	-0.009064
797.000000	-0.009171
796.000000	-0.009215
795.000000	-0.010490
794.000000	-0.009696
793.000000	-0.009315
792.000000	-0.010247
791.000000	-0.009201
790.000000	-0.009818
789.000000	-0.009246
788.000000	-0.009138
787.000000	-0.009129
786.000000	-0.010373
785.000000	-0.009710
784.000000	-0.008912
783.000000	-0.009652
782.000000	-0.008735
781.000000	-0.009099
780.000000	-0.009359
779.000000	-0.010213
778.000000	-0.009647
777.000000	-0.009839
776.000000	-0.009166
775.000000	-0.008849
774.000000	-0.009062
773.000000	-0.009843
772.000000	-0.009608
771.000000	-0.008251
770.000000	-0.009075
769.000000	-0.008227
768.000000	-0.009180
767.000000	-0.009116
766.000000	-0.009155
765.000000	-0.009011
764.000000	-0.009062
763.000000	-0.009157
762.000000	-0.010438
761.000000	-0.009690
760.000000	-0.010054
759.000000	-0.009717
758.000000	-0.010193
757.000000	-0.009544
756.000000	-0.009853
755.000000	-0.008890
754.000000	-0.009801
753.000000	-0.010642
752.000000	-0.010138
751.000000	-0.010927
750.000000	-0.009154
749.000000	-0.008712
748.000000	-0.007956
747.000000	-0.009044
746.000000	-0.009862
745.000000	-0.010018
744.000000	-0.009851
743.000000	-0.009641
742.000000	-0.010057
741.000000	-0.010140
740.000000	-0.009175
739.000000	-0.010581
738.000000	-0.009932
737.000000	-0.010084
736.000000	-0.009723
735.000000	-0.010021
734.000000	-0.009256
733.000000	-0.009612
732.000000	-0.010643
731.000000	-0.009956
730.000000	-0.010614
729.000000	-0.010966
728.000000	-0.010578
727.000000	-0.010824
726.000000	-0.010221
725.000000	-0.010350
724.000000	-0.010635
723.000000	-0.010875
722.000000	-0.011351
721.000000	-0.011279
720.000000	-0.011293
719.000000	-0.010943
718.000000	-0.011101
717.000000	-0.011130
716.000000	-0.010655
715.000000	-0.010953
714.000000	-0.010894
713.000000	-0.010651
712.000000	-0.010390
711.000000	-0.010398
710.000000	-0.010875
709.000000	-0.010217
708.000000	-0.009709
707.000000	-0.009531
706.000000	-0.009550
705.000000	-0.009674
704.000000	-0.008845
703.000000	-0.008588
702.000000	-0.008360
701.000000	-0.007782
700.000000	-0.006966
699.000000	-0.005581
698.000000	-0.004199
697.000000	-0.003050
696.000000	-0.001540
695.000000	0.000496
694.000000	0.002933
693.000000	0.005482
692.000000	0.008369
691.000000	0.011172
690.000000	0.014516
689.000000	0.018767
688.000000	0.022354
687.000000	0.025104
686.000000	0.028893
685.000000	0.033423
684.000000	0.037025
683.000000	0.039919
682.000000	0.043035
681.000000	0.045311
680.000000	0.046984
679.000000	0.049189
678.000000	0.051307
677.000000	0.052904
676.000000	0.054198
675.000000	0.054889
674.000000	0.054921
673.000000	0.054380
672.000000	0.053986
671.000000	0.053167
670.000000	0.051541
669.000000	0.048863
668.000000	0.046136
667.000000	0.043381
666.000000	0.040006
665.000000	0.036302
664.000000	0.032508
663.000000	0.029158
662.000000	0.026038
661.000000	0.022897
660.000000	0.019787
659.000000	0.017102
658.000000	0.015232
657.000000	0.012939
656.000000	0.010924
655.000000	0.009631
654.000000	0.008262
653.000000	0.007343
652.000000	0.006573
651.000000	0.005606
650.000000	0.004937
649.000000	0.004831
648.000000	0.004647
647.000000	0.004052
646.000000	0.003585
645.000000	0.003364
644.000000	0.002997
643.000000	0.003393
642.000000	0.003363
641.000000	0.002968
640.000000	0.003499
639.000000	0.003610
638.000000	0.003823
637.000000	0.004391
636.000000	0.004686
635.000000	0.004485
634.000000	0.004249
633.000000	0.004571
632.000000	0.004686
631.000000	0.004525
630.000000	0.004724
629.000000	0.004735
628.000000	0.004584
627.000000	0.004382
626.000000	0.004014
625.000000	0.003843
624.000000	0.003926
623.000000	0.003283
622.000000	0.003210
621.000000	0.003075
620.000000	0.003447
619.000000	0.003125
618.000000	0.002586
617.000000	0.001856
616.000000	0.001676
615.000000	0.001073
614.000000	0.000896
613.000000	0.001248
612.000000	0.001107
611.000000	0.000385
610.000000	0.000145
609.000000	-0.000101
608.000000	-0.000301
607.000000	-0.000832
606.000000	-0.000819
605.000000	-0.000858
604.000000	-0.000971
603.000000	-0.001202
602.000000	-0.001663
601.000000	-0.001398
600.000000	-0.001784
599.000000	-0.001306
598.000000	-0.002142
597.000000	-0.002194
596.000000	-0.002005
595.000000	-0.001966
594.000000	-0.002461
593.000000	-0.002831
592.000000	-0.002514
591.000000	-0.002379
590.000000	-0.002344
589.000000	-0.002807
588.000000	-0.002703
587.000000	-0.002785
586.000000	-0.003176
585.000000	-0.003205
584.000000	-0.003398
583.000000	-0.003740
582.000000	-0.003768
581.000000	-0.004004
580.000000	-0.003838
579.000000	-0.003880
578.000000	-0.004048
577.000000	-0.004538
576.000000	-0.004485
575.000000	-0.004411
574.000000	-0.004329
573.000000	-0.004502
572.000000	-0.005031
571.000000	-0.005185
570.000000	-0.005205
569.000000	-0.005296
568.000000	-0.005098
567.000000	-0.005554
566.000000	-0.005340
565.000000	-0.005000
564.000000	-0.004531
563.000000	-0.004868
562.000000	-0.005070
561.000000	-0.004608
560.000000	-0.004684
559.000000	-0.004528
558.000000	-0.003886
557.000000	-0.003559
556.000000	-0.004049
555.000000	-0.004291
554.000000	-0.004255
553.000000	-0.003050
552.000000	-0.003756
551.000000	-0.003190
550.000000	-0.003018
549.000000	-0.002914
548.000000	-0.002207
547.000000	-0.002118
546.000000	-0.001690
545.000000	-0.001360
544.000000	-0.001358
543.000000	-0.000958
542.000000	-0.001249
541.000000	-0.000505
540.000000	-0.000415
539.000000	-0.000643
538.000000	0.000404
537.000000	0.000416
536.000000	0.000845
535.000000	0.001381
534.000000	0.001712
533.000000	0.002336
532.000000	0.002716
531.000000	0.003083
530.000000	0.003691
529.000000	0.004586
528.000000	0.005282
527.000000	0.006460
526.000000	0.007414
525.000000	0.007976
524.000000	0.009035
523.000000	0.009637
522.000000	0.011539
521.000000	0.013284
520.000000	0.014781
519.000000	0.016331
518.000000	0.018541
517.000000	0.020368
516.000000	0.022549
515.000000	0.024701
514.000000	0.027739
513.000000	0.029796
512.000000	0.032564
511.000000	0.034447
510.000000	0.036994
509.000000	0.040242
508.000000	0.043374
507.000000	0.046144
506.000000	0.049318
505.000000	0.052146
504.000000	0.054630
503.000000	0.057455
502.000000	0.060546
501.000000	0.062749
500.000000	0.065356
499.000000	0.067098
498.000000	0.069121
497.000000	0.070956
496.000000	0.073384
495.000000	0.074077
494.000000	0.075051
493.000000	0.076314
492.000000	0.077613
491.000000	0.077911
490.000000	0.079227
489.000000	0.079815
488.000000	0.079920
487.000000	0.080274
486.000000	0.081166
485.000000	0.081350
484.000000	0.082040
483.000000	0.082675
482.000000	0.083171
481.000000	0.083262
480.000000	0.083852
479.000000	0.084256
478.000000	0.085325
477.000000	0.086326
476.000000	0.088084
475.000000	0.088909
474.000000	0.090918
473.000000	0.092568
472.000000	0.093359
471.000000	0.094807
470.000000	0.096792
469.000000	0.098965
468.000000	0.101338
467.000000	0.104186
466.000000	0.106660
465.000000	0.108653
464.000000	0.111110
463.000000	0.114049
462.000000	0.117455
461.000000	0.120829
460.000000	0.123928
459.000000	0.126668
458.000000	0.129791
457.000000	0.132746
456.000000	0.135803
455.000000	0.138793
454.000000	0.141908
453.000000	0.144599
452.000000	0.146702
451.000000	0.148419
450.000000	0.150548
449.000000	0.152233
448.000000	0.153758
447.000000	0.155414
446.000000	0.156233
445.000000	0.156341
444.000000	0.156146
443.000000	0.156000
442.000000	0.155109
441.000000	0.153645
440.000000	0.152418
439.000000	0.150699
438.000000	0.149333
437.000000	0.148071
436.000000	0.146705
435.000000	0.145487
434.000000	0.144445
433.000000	0.143006
432.000000	0.142046
431.000000	0.141239
430.000000	0.140321
429.000000	0.139342
428.000000	0.138515
427.000000	0.137363
426.000000	0.136630
425.000000	0.135921
424.000000	0.134498
423.000000	0.133295
422.000000	0.131873
421.000000	0.129886
420.000000	0.128228
419.000000	0.126671
418.000000	0.125130
417.000000	0.123346
416.000000	0.121668
415.000000	0.120039
414.000000	0.117749
413.000000	0.116113
412.000000	0.114985
411.000000	0.113076
410.000000	0.111816
409.000000	0.111020
408.000000	0.110166
407.000000	0.108820
406.000000	0.108079
405.000000	0.107911
404.000000	0.107696
403.000000	0.107021
402.000000	0.106541
401.000000	0.106571
400.000000	0.106285
399.000000	0.107150
398.000000	0.107579
397.000000	0.108013
396.000000	0.107547
395.000000	0.107554
394.000000	0.108356
393.000000	0.108751
392.000000	0.108629
391.000000	0.109027
390.000000	0.108645
389.000000	0.107682
388.000000	0.106841
387.000000	0.105846
386.000000	0.103930
385.000000	0.102081
384.000000	0.099494
383.000000	0.097368
382.000000	0.094944
381.000000	0.091369
380.000000	0.087082
379.000000	0.085037
378.000000	0.080729
377.000000	0.076504
376.000000	0.073189
375.000000	0.069615
374.000000	0.066440
373.000000	0.064553
372.000000	0.060640
371.000000	0.058942
370.000000	0.055791
369.000000	0.054240
368.000000	0.053215
367.000000	0.052362
366.000000	0.049368
365.000000	0.048838
364.000000	0.047084
363.000000	0.045164
362.000000	0.043756
361.000000	0.043485
360.000000	0.043249
359.000000	0.041520
358.000000	0.042280
357.000000	0.039467
356.000000	0.039041
355.000000	0.039097
354.000000	0.036612
353.000000	0.038291
352.000000	0.039009
351.000000	0.038029
350.000000	0.034746
349.000000	0.034410
348.000000	0.034946
347.000000	0.038086
346.000000	0.037218
345.000000	0.035310
344.000000	0.037367
343.000000	0.038012
342.000000	0.037898
341.000000	0.036764
340.000000	0.040014
339.000000	0.038212
338.000000	0.036270
337.000000	0.036118
336.000000	0.035159
335.000000	0.035941
334.000000	0.035807
333.000000	0.035755
332.000000	0.037912
331.000000	0.035757
330.000000	0.035219
329.000000	0.032596
328.000000	0.032221
327.000000	0.035782
326.000000	0.035656
325.000000	0.033380
324.000000	0.032997
323.000000	0.037914
322.000000	0.040233
321.000000	0.039988
320.000000	0.040646
319.000000	0.037560
318.000000	0.039080
317.000000	0.039383
316.000000	0.042547
315.000000	0.043802
314.000000	0.044809
313.000000	0.043237
312.000000	0.045104
311.000000	0.048033
310.000000	0.050479
309.000000	0.052029
308.000000	0.056202
307.000000	0.058212
306.000000	0.061983
305.000000	0.065449
304.000000	0.068404
303.000000	0.070138
302.000000	0.077057
301.000000	0.082052
300.000000	0.085036
