PE UV       SUBTECH     SPECTRUM    ASCII       PEDS        4.00        
   -1
PETIT_35.Sample.Raw.asc
20/12/15
09:57:58.00
20/12/15
09:57:58.00
CNRS
RCC3006_1717_Cb
300.000000
1
Lambda 850
850L1011221
PerkinElmer UV WinLab 6.0.3.0730 / 1.61.00 Lambda 800

0
0
2
0
0
UV/VIS
1
1
1
RBeamAtt,SBeamAtt,150mm sphere / downward view
0
0
0
0
Fix
 
0
0.2
0
0
0
 
 
 
0
 
0
319.2
0
Front
50
 
S:100 R:100
 
0
0
0
 
0
 
 
 
0
 
 
0
0
0
0
0
 
 
 
 
0
0


#HDR
-1
-1
#GR
nm
A
1.0
0.0
800.000000
-1.000000
501
8
0.268381
-0.014260
#DATA
800.000000	-0.012445
799.000000	-0.012622
798.000000	-0.014074
797.000000	-0.012215
796.000000	-0.013607
795.000000	-0.014178
794.000000	-0.013271
793.000000	-0.014260
792.000000	-0.012610
791.000000	-0.012242
790.000000	-0.012217
789.000000	-0.013095
788.000000	-0.013052
787.000000	-0.012919
786.000000	-0.013468
785.000000	-0.013324
784.000000	-0.012990
783.000000	-0.012228
782.000000	-0.011281
781.000000	-0.012542
780.000000	-0.012879
779.000000	-0.013808
778.000000	-0.013071
777.000000	-0.013049
776.000000	-0.012134
775.000000	-0.011903
774.000000	-0.011911
773.000000	-0.012265
772.000000	-0.012965
771.000000	-0.013078
770.000000	-0.012459
769.000000	-0.012049
768.000000	-0.012097
767.000000	-0.012896
766.000000	-0.011975
765.000000	-0.012041
764.000000	-0.012205
763.000000	-0.012570
762.000000	-0.012793
761.000000	-0.012446
760.000000	-0.013129
759.000000	-0.011565
758.000000	-0.012258
757.000000	-0.011737
756.000000	-0.012023
755.000000	-0.011376
754.000000	-0.012327
753.000000	-0.013392
752.000000	-0.012789
751.000000	-0.013273
750.000000	-0.012448
749.000000	-0.011153
748.000000	-0.010389
747.000000	-0.010440
746.000000	-0.011712
745.000000	-0.012678
744.000000	-0.012262
743.000000	-0.011938
742.000000	-0.012049
741.000000	-0.011789
740.000000	-0.010274
739.000000	-0.012212
738.000000	-0.010671
737.000000	-0.011394
736.000000	-0.011250
735.000000	-0.010826
734.000000	-0.010304
733.000000	-0.010552
732.000000	-0.010656
731.000000	-0.010161
730.000000	-0.010303
729.000000	-0.009749
728.000000	-0.009531
727.000000	-0.008863
726.000000	-0.007889
725.000000	-0.007106
724.000000	-0.006940
723.000000	-0.006353
722.000000	-0.005020
721.000000	-0.004013
720.000000	-0.003018
719.000000	-0.001186
718.000000	0.001080
717.000000	0.002677
716.000000	0.005405
715.000000	0.008283
714.000000	0.010792
713.000000	0.013189
712.000000	0.015963
711.000000	0.018504
710.000000	0.021423
709.000000	0.024523
708.000000	0.027138
707.000000	0.029832
706.000000	0.032855
705.000000	0.035089
704.000000	0.038879
703.000000	0.042607
702.000000	0.045641
701.000000	0.049303
700.000000	0.053161
699.000000	0.057832
698.000000	0.062807
697.000000	0.067465
696.000000	0.072245
695.000000	0.077590
694.000000	0.083472
693.000000	0.089245
692.000000	0.095598
691.000000	0.101730
690.000000	0.107922
689.000000	0.114683
688.000000	0.121392
687.000000	0.127648
686.000000	0.133492
685.000000	0.140121
684.000000	0.146405
683.000000	0.151808
682.000000	0.157438
681.000000	0.162200
680.000000	0.165828
679.000000	0.169951
678.000000	0.174050
677.000000	0.177045
676.000000	0.178978
675.000000	0.180261
674.000000	0.180850
673.000000	0.179654
672.000000	0.177340
671.000000	0.174292
670.000000	0.170286
669.000000	0.165373
668.000000	0.159398
667.000000	0.152274
666.000000	0.145209
665.000000	0.137666
664.000000	0.130003
663.000000	0.123083
662.000000	0.116079
661.000000	0.109459
660.000000	0.103341
659.000000	0.097547
658.000000	0.092895
657.000000	0.087937
656.000000	0.083367
655.000000	0.080278
654.000000	0.077228
653.000000	0.074677
652.000000	0.073181
651.000000	0.071325
650.000000	0.070017
649.000000	0.069619
648.000000	0.069379
647.000000	0.068968
646.000000	0.069072
645.000000	0.069245
644.000000	0.069158
643.000000	0.069967
642.000000	0.070532
641.000000	0.070702
640.000000	0.071824
639.000000	0.072073
638.000000	0.071837
637.000000	0.072704
636.000000	0.072491
635.000000	0.071978
634.000000	0.071720
633.000000	0.071066
632.000000	0.070315
631.000000	0.069780
630.000000	0.069280
629.000000	0.068048
628.000000	0.067233
627.000000	0.066605
626.000000	0.066099
625.000000	0.065588
624.000000	0.065186
623.000000	0.064436
622.000000	0.064140
621.000000	0.063431
620.000000	0.062878
619.000000	0.061819
618.000000	0.060425
617.000000	0.059623
616.000000	0.058357
615.000000	0.056713
614.000000	0.055621
613.000000	0.054775
612.000000	0.053673
611.000000	0.052449
610.000000	0.051462
609.000000	0.049687
608.000000	0.048921
607.000000	0.047350
606.000000	0.047071
605.000000	0.046617
604.000000	0.045772
603.000000	0.045762
602.000000	0.045146
601.000000	0.045719
600.000000	0.045614
599.000000	0.046289
598.000000	0.046500
597.000000	0.046778
596.000000	0.047644
595.000000	0.048414
594.000000	0.048779
593.000000	0.049149
592.000000	0.049488
591.000000	0.050637
590.000000	0.050889
589.000000	0.050807
588.000000	0.050978
587.000000	0.050892
586.000000	0.050268
585.000000	0.051106
584.000000	0.050665
583.000000	0.050174
582.000000	0.050092
581.000000	0.049963
580.000000	0.049812
579.000000	0.049940
578.000000	0.049323
577.000000	0.049692
576.000000	0.049194
575.000000	0.050193
574.000000	0.050102
573.000000	0.050279
572.000000	0.049933
571.000000	0.050374
570.000000	0.050830
569.000000	0.051440
568.000000	0.051662
567.000000	0.052384
566.000000	0.053604
565.000000	0.054215
564.000000	0.055853
563.000000	0.056719
562.000000	0.057672
561.000000	0.059612
560.000000	0.060908
559.000000	0.062364
558.000000	0.063460
557.000000	0.065935
556.000000	0.066797
555.000000	0.068930
554.000000	0.069626
553.000000	0.072474
552.000000	0.072549
551.000000	0.075092
550.000000	0.076079
549.000000	0.077373
548.000000	0.079058
547.000000	0.080115
546.000000	0.081460
545.000000	0.083483
544.000000	0.084310
543.000000	0.085672
542.000000	0.086562
541.000000	0.087556
540.000000	0.088530
539.000000	0.089628
538.000000	0.091271
537.000000	0.092261
536.000000	0.093166
535.000000	0.094112
534.000000	0.095399
533.000000	0.097017
532.000000	0.098050
531.000000	0.098523
530.000000	0.100096
529.000000	0.100876
528.000000	0.101607
527.000000	0.103625
526.000000	0.105098
525.000000	0.105876
524.000000	0.107211
523.000000	0.108269
522.000000	0.109565
521.000000	0.110613
520.000000	0.111659
519.000000	0.112792
518.000000	0.114036
517.000000	0.115318
516.000000	0.117437
515.000000	0.118333
514.000000	0.120206
513.000000	0.122284
512.000000	0.123957
511.000000	0.125193
510.000000	0.126273
509.000000	0.128873
508.000000	0.130614
507.000000	0.133180
506.000000	0.134913
505.000000	0.137420
504.000000	0.139348
503.000000	0.141425
502.000000	0.144259
501.000000	0.146564
500.000000	0.148704
499.000000	0.150719
498.000000	0.153405
497.000000	0.155646
496.000000	0.157134
495.000000	0.158670
494.000000	0.160686
493.000000	0.162315
492.000000	0.163421
491.000000	0.165106
490.000000	0.166697
489.000000	0.168240
488.000000	0.168964
487.000000	0.170545
486.000000	0.171994
485.000000	0.173444
484.000000	0.174956
483.000000	0.177006
482.000000	0.179420
481.000000	0.180749
480.000000	0.183006
479.000000	0.185331
478.000000	0.188265
477.000000	0.191362
476.000000	0.195059
475.000000	0.198656
474.000000	0.202672
473.000000	0.206995
472.000000	0.210702
471.000000	0.214396
470.000000	0.218230
469.000000	0.222333
468.000000	0.226167
467.000000	0.229255
466.000000	0.231658
465.000000	0.233325
464.000000	0.235076
463.000000	0.236084
462.000000	0.236779
461.000000	0.237523
460.000000	0.237962
459.000000	0.237474
458.000000	0.237425
457.000000	0.236435
456.000000	0.235778
455.000000	0.235665
454.000000	0.236247
453.000000	0.235888
452.000000	0.236359
451.000000	0.237410
450.000000	0.238924
449.000000	0.240775
448.000000	0.243301
447.000000	0.245811
446.000000	0.249166
445.000000	0.252602
444.000000	0.254999
443.000000	0.258175
442.000000	0.260757
441.000000	0.262741
440.000000	0.264691
439.000000	0.265632
438.000000	0.266904
437.000000	0.267989
436.000000	0.268155
435.000000	0.268103
434.000000	0.268381
433.000000	0.268045
432.000000	0.266954
431.000000	0.265784
430.000000	0.264154
429.000000	0.263237
428.000000	0.262087
427.000000	0.260273
426.000000	0.259264
425.000000	0.258626
424.000000	0.257720
423.000000	0.257552
422.000000	0.257357
421.000000	0.256941
420.000000	0.257036
419.000000	0.257857
418.000000	0.258714
417.000000	0.258696
416.000000	0.258796
415.000000	0.259762
414.000000	0.259779
413.000000	0.260046
412.000000	0.259928
411.000000	0.258997
410.000000	0.258382
409.000000	0.257957
408.000000	0.257462
407.000000	0.255641
406.000000	0.253494
405.000000	0.252112
404.000000	0.250892
403.000000	0.248663
402.000000	0.246586
401.000000	0.245114
400.000000	0.242864
399.000000	0.241401
398.000000	0.240508
397.000000	0.239802
396.000000	0.238121
395.000000	0.236418
394.000000	0.236391
393.000000	0.236062
392.000000	0.235276
391.000000	0.234979
390.000000	0.234827
389.000000	0.233498
388.000000	0.233115
387.000000	0.232979
386.000000	0.232230
385.000000	0.230377
384.000000	0.229098
383.000000	0.227694
382.000000	0.227225
381.000000	0.225425
380.000000	0.223264
379.000000	0.221095
378.000000	0.214236
377.000000	0.211094
376.000000	0.209269
375.000000	0.207177
374.000000	0.204434
373.000000	0.203186
372.000000	0.202193
371.000000	0.200335
370.000000	0.196386
369.000000	0.196439
368.000000	0.195183
367.000000	0.193491
366.000000	0.190545
365.000000	0.189344
364.000000	0.188860
363.000000	0.185597
362.000000	0.183069
361.000000	0.181743
360.000000	0.181895
359.000000	0.178978
358.000000	0.176810
357.000000	0.176026
356.000000	0.175339
355.000000	0.174608
354.000000	0.174340
353.000000	0.173838
352.000000	0.174448
351.000000	0.172632
350.000000	0.169685
349.000000	0.171593
348.000000	0.173068
347.000000	0.175109
346.000000	0.173580
345.000000	0.175962
344.000000	0.176263
343.000000	0.176046
342.000000	0.179162
341.000000	0.175487
340.000000	0.181185
339.000000	0.181557
338.000000	0.180788
337.000000	0.179485
336.000000	0.184028
335.000000	0.185412
334.000000	0.182452
333.000000	0.185219
332.000000	0.185911
331.000000	0.183337
330.000000	0.184318
329.000000	0.181250
328.000000	0.184355
327.000000	0.185359
326.000000	0.185248
325.000000	0.183241
324.000000	0.183835
323.000000	0.186986
322.000000	0.185749
321.000000	0.186939
320.000000	0.185949
319.000000	0.183997
318.000000	0.174236
317.000000	0.174721
316.000000	0.175315
315.000000	0.173198
314.000000	0.173598
313.000000	0.174331
312.000000	0.173499
311.000000	0.175712
310.000000	0.174766
309.000000	0.175245
308.000000	0.177750
307.000000	0.178536
306.000000	0.180670
305.000000	0.182323
304.000000	0.185106
303.000000	0.185931
302.000000	0.190849
301.000000	0.196363
300.000000	0.197903
