PE UV       SUBTECH     SPECTRUM    ASCII       PEDS        4.00        
   -1
PETIT-52.Sample.Raw.asc
20/12/15
11:44:39.00
20/12/15
11:44:39.00
CNRS
RCC1717_B_D
300.000000
1
Lambda 850
850L1011221
PerkinElmer UV WinLab 6.0.3.0730 / 1.61.00 Lambda 800

0
0
2
0
0
UV/VIS
1
1
1
RBeamAtt,SBeamAtt,150mm sphere / downward view
0
0
0
0
Fix
 
0
0.2
0
0
0
 
 
 
0
 
0
319.2
0
Front
50
 
S:100 R:100
 
0
0
0
 
0
 
 
 
0
 
 
0
0
0
0
0
 
 
 
 
0
0


#HDR
-1
-1
#GR
nm
A
1.0
0.0
800.000000
-1.000000
501
8
0.084666
-0.015903
#DATA
800.000000	-0.012717
799.000000	-0.013625
798.000000	-0.014433
797.000000	-0.012743
796.000000	-0.013736
795.000000	-0.015903
794.000000	-0.014035
793.000000	-0.013525
792.000000	-0.012613
791.000000	-0.013360
790.000000	-0.013181
789.000000	-0.015015
788.000000	-0.013806
787.000000	-0.013142
786.000000	-0.013952
785.000000	-0.013786
784.000000	-0.013138
783.000000	-0.012701
782.000000	-0.012288
781.000000	-0.012999
780.000000	-0.014172
779.000000	-0.013736
778.000000	-0.013377
777.000000	-0.013271
776.000000	-0.013338
775.000000	-0.012650
774.000000	-0.012478
773.000000	-0.012301
772.000000	-0.012596
771.000000	-0.013247
770.000000	-0.013622
769.000000	-0.012066
768.000000	-0.012947
767.000000	-0.013457
766.000000	-0.012975
765.000000	-0.013060
764.000000	-0.014029
763.000000	-0.014252
762.000000	-0.014040
761.000000	-0.013597
760.000000	-0.014587
759.000000	-0.013250
758.000000	-0.013418
757.000000	-0.013734
756.000000	-0.014148
755.000000	-0.012707
754.000000	-0.013361
753.000000	-0.013960
752.000000	-0.013480
751.000000	-0.013820
750.000000	-0.012859
749.000000	-0.011268
748.000000	-0.011877
747.000000	-0.013212
746.000000	-0.013434
745.000000	-0.013600
744.000000	-0.013885
743.000000	-0.013017
742.000000	-0.013632
741.000000	-0.013692
740.000000	-0.012777
739.000000	-0.014100
738.000000	-0.013079
737.000000	-0.013820
736.000000	-0.013255
735.000000	-0.013426
734.000000	-0.013476
733.000000	-0.013100
732.000000	-0.013376
731.000000	-0.013175
730.000000	-0.012907
729.000000	-0.013438
728.000000	-0.012443
727.000000	-0.012147
726.000000	-0.011516
725.000000	-0.012618
724.000000	-0.012711
723.000000	-0.011944
722.000000	-0.011411
721.000000	-0.011015
720.000000	-0.011088
719.000000	-0.010331
718.000000	-0.010213
717.000000	-0.009579
716.000000	-0.008972
715.000000	-0.008279
714.000000	-0.007159
713.000000	-0.006266
712.000000	-0.005402
711.000000	-0.004552
710.000000	-0.003552
709.000000	-0.002707
708.000000	-0.001644
707.000000	-0.000319
706.000000	0.000172
705.000000	0.000182
704.000000	0.001497
703.000000	0.002564
702.000000	0.003385
701.000000	0.003803
700.000000	0.005339
699.000000	0.006758
698.000000	0.008218
697.000000	0.009152
696.000000	0.010536
695.000000	0.012458
694.000000	0.013939
693.000000	0.015588
692.000000	0.018089
691.000000	0.020171
690.000000	0.022411
689.000000	0.024407
688.000000	0.026454
687.000000	0.028536
686.000000	0.030594
685.000000	0.033077
684.000000	0.035359
683.000000	0.037061
682.000000	0.039151
681.000000	0.040894
680.000000	0.041806
679.000000	0.043293
678.000000	0.044815
677.000000	0.045561
676.000000	0.045927
675.000000	0.046445
674.000000	0.046131
673.000000	0.045152
672.000000	0.044215
671.000000	0.042920
670.000000	0.041492
669.000000	0.039728
668.000000	0.037524
667.000000	0.035119
666.000000	0.032719
665.000000	0.029799
664.000000	0.026591
663.000000	0.024085
662.000000	0.022026
661.000000	0.019952
660.000000	0.017806
659.000000	0.015596
658.000000	0.014552
657.000000	0.013195
656.000000	0.011793
655.000000	0.010928
654.000000	0.009662
653.000000	0.008638
652.000000	0.008287
651.000000	0.007950
650.000000	0.007488
649.000000	0.007332
648.000000	0.007303
647.000000	0.007327
646.000000	0.007308
645.000000	0.007254
644.000000	0.007579
643.000000	0.007826
642.000000	0.007839
641.000000	0.007676
640.000000	0.008220
639.000000	0.007807
638.000000	0.007718
637.000000	0.008358
636.000000	0.008113
635.000000	0.007660
634.000000	0.007818
633.000000	0.007907
632.000000	0.007954
631.000000	0.007224
630.000000	0.007122
629.000000	0.006766
628.000000	0.006358
627.000000	0.006505
626.000000	0.006404
625.000000	0.006239
624.000000	0.005758
623.000000	0.005555
622.000000	0.005760
621.000000	0.005549
620.000000	0.005364
619.000000	0.004282
618.000000	0.004255
617.000000	0.003997
616.000000	0.003812
615.000000	0.003333
614.000000	0.002999
613.000000	0.002585
612.000000	0.002160
611.000000	0.001787
610.000000	0.001725
609.000000	0.000901
608.000000	0.001348
607.000000	0.000126
606.000000	0.000347
605.000000	0.000493
604.000000	0.000490
603.000000	0.000331
602.000000	-0.000023
601.000000	0.000248
600.000000	0.000374
599.000000	0.000493
598.000000	-0.000045
597.000000	0.000263
596.000000	0.000632
595.000000	0.000597
594.000000	0.001156
593.000000	0.001268
592.000000	0.001203
591.000000	0.001593
590.000000	0.001900
589.000000	0.001332
588.000000	0.001296
587.000000	0.001469
586.000000	0.001367
585.000000	0.001416
584.000000	0.001988
583.000000	0.001199
582.000000	0.001120
581.000000	0.000870
580.000000	0.001341
579.000000	0.001476
578.000000	0.001231
577.000000	0.001403
576.000000	0.001299
575.000000	0.001197
574.000000	0.001490
573.000000	0.001748
572.000000	0.001599
571.000000	0.001465
570.000000	0.001866
569.000000	0.001712
568.000000	0.002458
567.000000	0.002461
566.000000	0.002664
565.000000	0.003223
564.000000	0.003553
563.000000	0.003818
562.000000	0.004119
561.000000	0.004466
560.000000	0.005007
559.000000	0.005668
558.000000	0.006179
557.000000	0.006675
556.000000	0.007288
555.000000	0.007222
554.000000	0.007742
553.000000	0.008605
552.000000	0.008492
551.000000	0.009572
550.000000	0.009681
549.000000	0.009923
548.000000	0.010727
547.000000	0.011024
546.000000	0.011777
545.000000	0.012078
544.000000	0.012152
543.000000	0.012622
542.000000	0.013277
541.000000	0.013733
540.000000	0.013640
539.000000	0.014094
538.000000	0.014957
537.000000	0.014987
536.000000	0.015467
535.000000	0.016260
534.000000	0.016519
533.000000	0.016707
532.000000	0.017133
531.000000	0.017380
530.000000	0.018082
529.000000	0.018125
528.000000	0.018809
527.000000	0.019324
526.000000	0.019976
525.000000	0.020355
524.000000	0.020300
523.000000	0.020735
522.000000	0.021225
521.000000	0.021671
520.000000	0.021689
519.000000	0.022540
518.000000	0.022678
517.000000	0.023374
516.000000	0.024160
515.000000	0.024438
514.000000	0.025219
513.000000	0.025597
512.000000	0.026449
511.000000	0.026384
510.000000	0.026970
509.000000	0.028066
508.000000	0.028640
507.000000	0.029939
506.000000	0.031066
505.000000	0.031633
504.000000	0.031852
503.000000	0.032244
502.000000	0.032975
501.000000	0.034607
500.000000	0.035574
499.000000	0.035866
498.000000	0.036686
497.000000	0.036837
496.000000	0.038074
495.000000	0.038453
494.000000	0.039085
493.000000	0.039938
492.000000	0.040819
491.000000	0.040674
490.000000	0.041139
489.000000	0.041997
488.000000	0.042436
487.000000	0.043223
486.000000	0.044016
485.000000	0.044530
484.000000	0.045028
483.000000	0.045538
482.000000	0.046912
481.000000	0.047507
480.000000	0.048438
479.000000	0.048634
478.000000	0.050354
477.000000	0.051563
476.000000	0.053143
475.000000	0.054750
474.000000	0.056396
473.000000	0.057552
472.000000	0.058221
471.000000	0.059603
470.000000	0.060969
469.000000	0.062610
468.000000	0.063724
467.000000	0.064961
466.000000	0.066163
465.000000	0.066840
464.000000	0.067226
463.000000	0.067744
462.000000	0.067906
461.000000	0.068234
460.000000	0.068401
459.000000	0.068169
458.000000	0.068413
457.000000	0.068299
456.000000	0.068050
455.000000	0.068204
454.000000	0.068552
453.000000	0.068309
452.000000	0.068988
451.000000	0.069598
450.000000	0.070498
449.000000	0.070872
448.000000	0.072673
447.000000	0.074693
446.000000	0.075652
445.000000	0.076845
444.000000	0.077844
443.000000	0.079220
442.000000	0.080128
441.000000	0.080688
440.000000	0.081289
439.000000	0.081727
438.000000	0.082615
437.000000	0.082631
436.000000	0.082002
435.000000	0.082053
434.000000	0.082873
433.000000	0.082496
432.000000	0.081959
431.000000	0.081856
430.000000	0.081606
429.000000	0.080866
428.000000	0.080359
427.000000	0.079884
426.000000	0.079691
425.000000	0.079547
424.000000	0.078944
423.000000	0.079295
422.000000	0.079769
421.000000	0.079424
420.000000	0.079232
419.000000	0.079486
418.000000	0.079877
417.000000	0.079752
416.000000	0.079690
415.000000	0.080390
414.000000	0.080327
413.000000	0.079932
412.000000	0.079975
411.000000	0.079973
410.000000	0.079349
409.000000	0.078639
408.000000	0.078909
407.000000	0.077964
406.000000	0.076391
405.000000	0.075893
404.000000	0.075055
403.000000	0.074211
402.000000	0.074070
401.000000	0.073218
400.000000	0.072416
399.000000	0.071972
398.000000	0.071406
397.000000	0.070783
396.000000	0.069915
395.000000	0.069140
394.000000	0.069183
393.000000	0.068928
392.000000	0.068857
391.000000	0.068806
390.000000	0.068032
389.000000	0.068374
388.000000	0.069005
387.000000	0.068012
386.000000	0.067182
385.000000	0.065736
384.000000	0.065668
383.000000	0.066114
382.000000	0.065836
381.000000	0.065060
380.000000	0.063130
379.000000	0.062549
378.000000	0.060124
377.000000	0.059139
376.000000	0.058522
375.000000	0.058384
374.000000	0.057189
373.000000	0.055551
372.000000	0.055265
371.000000	0.054499
370.000000	0.052969
369.000000	0.052451
368.000000	0.053034
367.000000	0.053292
366.000000	0.051574
365.000000	0.051326
364.000000	0.050588
363.000000	0.050470
362.000000	0.048163
361.000000	0.046903
360.000000	0.046040
359.000000	0.046174
358.000000	0.046010
357.000000	0.043825
356.000000	0.045441
355.000000	0.044467
354.000000	0.042980
353.000000	0.042618
352.000000	0.042736
351.000000	0.041995
350.000000	0.040121
349.000000	0.043436
348.000000	0.041725
347.000000	0.043726
346.000000	0.043681
345.000000	0.044169
344.000000	0.043215
343.000000	0.045110
342.000000	0.045263
341.000000	0.042939
340.000000	0.047518
339.000000	0.047437
338.000000	0.046229
337.000000	0.048650
336.000000	0.048345
335.000000	0.048868
334.000000	0.049769
333.000000	0.049100
332.000000	0.047718
331.000000	0.049628
330.000000	0.048505
329.000000	0.050510
328.000000	0.048198
327.000000	0.052088
326.000000	0.051969
325.000000	0.051041
324.000000	0.049980
323.000000	0.051883
322.000000	0.055809
321.000000	0.051059
320.000000	0.055184
319.000000	0.052739
318.000000	0.052566
317.000000	0.052549
316.000000	0.053655
315.000000	0.053983
314.000000	0.054301
313.000000	0.055955
312.000000	0.053849
311.000000	0.055759
310.000000	0.058032
309.000000	0.059701
308.000000	0.063157
307.000000	0.064563
306.000000	0.066658
305.000000	0.069148
304.000000	0.071184
303.000000	0.071974
302.000000	0.078990
301.000000	0.083107
300.000000	0.084666
