PE UV       SUBTECH     SPECTRUM    ASCII       PEDS        4.00        
   -1
PETIT-54.Sample.Raw.asc
20/12/15
11:52:14.00
20/12/15
11:52:14.00
CNRS
RCC2319_B_D2
300.000000
1
Lambda 850
850L1011221
PerkinElmer UV WinLab 6.0.3.0730 / 1.61.00 Lambda 800

0
0
2
0
0
UV/VIS
1
1
1
RBeamAtt,SBeamAtt,150mm sphere / downward view
0
0
0
0
Fix
 
0
0.2
0
0
0
 
 
 
0
 
0
319.2
0
Front
50
 
S:100 R:100
 
0
0
0
 
0
 
 
 
0
 
 
0
0
0
0
0
 
 
 
 
0
0


#HDR
-1
-1
#GR
nm
A
1.0
0.0
800.000000
-1.000000
501
8
0.251292
-0.015697
#DATA
800.000000	-0.012565
799.000000	-0.012643
798.000000	-0.013296
797.000000	-0.013061
796.000000	-0.013669
795.000000	-0.015697
794.000000	-0.012743
793.000000	-0.014949
792.000000	-0.013077
791.000000	-0.012960
790.000000	-0.013263
789.000000	-0.014067
788.000000	-0.012602
787.000000	-0.013147
786.000000	-0.014180
785.000000	-0.015103
784.000000	-0.012722
783.000000	-0.013202
782.000000	-0.012449
781.000000	-0.013017
780.000000	-0.013391
779.000000	-0.013990
778.000000	-0.012557
777.000000	-0.013365
776.000000	-0.013368
775.000000	-0.012013
774.000000	-0.012243
773.000000	-0.013754
772.000000	-0.011826
771.000000	-0.013628
770.000000	-0.013254
769.000000	-0.011646
768.000000	-0.012037
767.000000	-0.012176
766.000000	-0.012441
765.000000	-0.013127
764.000000	-0.013620
763.000000	-0.012715
762.000000	-0.012694
761.000000	-0.012189
760.000000	-0.013461
759.000000	-0.013745
758.000000	-0.013052
757.000000	-0.012848
756.000000	-0.013077
755.000000	-0.011745
754.000000	-0.011852
753.000000	-0.013495
752.000000	-0.013719
751.000000	-0.014083
750.000000	-0.013174
749.000000	-0.012291
748.000000	-0.012072
747.000000	-0.012043
746.000000	-0.012732
745.000000	-0.012797
744.000000	-0.013497
743.000000	-0.013442
742.000000	-0.013244
741.000000	-0.012929
740.000000	-0.012027
739.000000	-0.013235
738.000000	-0.012818
737.000000	-0.013478
736.000000	-0.013170
735.000000	-0.012650
734.000000	-0.012672
733.000000	-0.013179
732.000000	-0.013342
731.000000	-0.013258
730.000000	-0.013382
729.000000	-0.012794
728.000000	-0.012629
727.000000	-0.012709
726.000000	-0.012394
725.000000	-0.012457
724.000000	-0.012515
723.000000	-0.012920
722.000000	-0.012644
721.000000	-0.012083
720.000000	-0.012206
719.000000	-0.012119
718.000000	-0.011659
717.000000	-0.012268
716.000000	-0.011563
715.000000	-0.011175
714.000000	-0.010498
713.000000	-0.009856
712.000000	-0.008952
711.000000	-0.008862
710.000000	-0.008336
709.000000	-0.007805
708.000000	-0.006363
707.000000	-0.005165
706.000000	-0.003379
705.000000	-0.002671
704.000000	-0.000811
703.000000	0.001721
702.000000	0.003954
701.000000	0.006578
700.000000	0.010107
699.000000	0.013763
698.000000	0.018306
697.000000	0.023214
696.000000	0.028197
695.000000	0.034477
694.000000	0.041081
693.000000	0.048287
692.000000	0.056107
691.000000	0.064007
690.000000	0.072926
689.000000	0.081763
688.000000	0.090283
687.000000	0.099487
686.000000	0.108107
685.000000	0.116359
684.000000	0.123326
683.000000	0.128868
682.000000	0.134277
681.000000	0.137936
680.000000	0.139600
679.000000	0.141698
678.000000	0.142230
677.000000	0.141391
676.000000	0.140526
675.000000	0.138693
674.000000	0.136028
673.000000	0.132919
672.000000	0.129524
671.000000	0.125751
670.000000	0.121837
669.000000	0.116848
668.000000	0.111024
667.000000	0.104865
666.000000	0.098311
665.000000	0.091465
664.000000	0.084453
663.000000	0.077765
662.000000	0.071599
661.000000	0.065737
660.000000	0.060467
659.000000	0.055665
658.000000	0.051483
657.000000	0.047100
656.000000	0.043635
655.000000	0.041014
654.000000	0.038662
653.000000	0.036906
652.000000	0.035757
651.000000	0.035034
650.000000	0.034527
649.000000	0.033977
648.000000	0.033634
647.000000	0.034062
646.000000	0.034814
645.000000	0.035212
644.000000	0.035990
643.000000	0.037044
642.000000	0.037671
641.000000	0.038314
640.000000	0.039749
639.000000	0.040469
638.000000	0.040897
637.000000	0.041786
636.000000	0.042479
635.000000	0.042910
634.000000	0.043263
633.000000	0.043576
632.000000	0.044150
631.000000	0.043874
630.000000	0.043951
629.000000	0.042990
628.000000	0.042694
627.000000	0.043095
626.000000	0.042675
625.000000	0.042069
624.000000	0.041587
623.000000	0.040925
622.000000	0.040183
621.000000	0.039162
620.000000	0.039172
619.000000	0.037744
618.000000	0.037021
617.000000	0.035818
616.000000	0.035066
615.000000	0.033888
614.000000	0.033060
613.000000	0.031973
612.000000	0.030948
611.000000	0.029965
610.000000	0.029491
609.000000	0.027854
608.000000	0.027267
607.000000	0.026102
606.000000	0.025388
605.000000	0.025184
604.000000	0.024456
603.000000	0.024076
602.000000	0.023641
601.000000	0.023796
600.000000	0.023954
599.000000	0.023878
598.000000	0.023080
597.000000	0.023175
596.000000	0.023586
595.000000	0.023257
594.000000	0.023526
593.000000	0.023576
592.000000	0.024056
591.000000	0.024630
590.000000	0.024445
589.000000	0.024282
588.000000	0.024783
587.000000	0.024888
586.000000	0.024850
585.000000	0.026125
584.000000	0.026040
583.000000	0.025946
582.000000	0.026286
581.000000	0.027217
580.000000	0.028556
579.000000	0.029582
578.000000	0.030690
577.000000	0.032475
576.000000	0.034084
575.000000	0.036226
574.000000	0.038770
573.000000	0.040650
572.000000	0.042512
571.000000	0.044683
570.000000	0.047001
569.000000	0.049036
568.000000	0.051420
567.000000	0.053354
566.000000	0.055686
565.000000	0.058175
564.000000	0.060351
563.000000	0.062925
562.000000	0.065653
561.000000	0.069342
560.000000	0.072740
559.000000	0.076217
558.000000	0.079526
557.000000	0.083412
556.000000	0.086378
555.000000	0.089172
554.000000	0.092165
553.000000	0.095620
552.000000	0.097216
551.000000	0.099593
550.000000	0.100312
549.000000	0.101802
548.000000	0.103001
547.000000	0.103203
546.000000	0.103493
545.000000	0.103543
544.000000	0.103527
543.000000	0.103279
542.000000	0.102901
541.000000	0.102453
540.000000	0.101496
539.000000	0.101137
538.000000	0.100682
537.000000	0.099801
536.000000	0.099660
535.000000	0.098464
534.000000	0.098162
533.000000	0.097227
532.000000	0.096655
531.000000	0.096034
530.000000	0.095637
529.000000	0.095079
528.000000	0.095084
527.000000	0.095099
526.000000	0.095441
525.000000	0.095710
524.000000	0.095862
523.000000	0.096435
522.000000	0.097452
521.000000	0.098537
520.000000	0.100275
519.000000	0.101753
518.000000	0.103706
517.000000	0.105601
516.000000	0.108418
515.000000	0.111184
514.000000	0.114376
513.000000	0.118032
512.000000	0.120857
511.000000	0.124397
510.000000	0.128402
509.000000	0.132519
508.000000	0.136817
507.000000	0.141161
506.000000	0.146210
505.000000	0.150826
504.000000	0.154566
503.000000	0.158692
502.000000	0.163454
501.000000	0.167437
500.000000	0.170835
499.000000	0.173947
498.000000	0.176618
497.000000	0.178779
496.000000	0.181004
495.000000	0.181924
494.000000	0.182562
493.000000	0.183886
492.000000	0.184331
491.000000	0.184360
490.000000	0.183679
489.000000	0.183806
488.000000	0.182603
487.000000	0.181265
486.000000	0.180372
485.000000	0.179217
484.000000	0.177798
483.000000	0.177025
482.000000	0.175906
481.000000	0.174529
480.000000	0.173744
479.000000	0.173021
478.000000	0.173015
477.000000	0.172817
476.000000	0.173728
475.000000	0.174411
474.000000	0.175624
473.000000	0.176394
472.000000	0.176433
471.000000	0.177740
470.000000	0.179430
469.000000	0.180758
468.000000	0.182158
467.000000	0.183551
466.000000	0.184522
465.000000	0.184988
464.000000	0.185734
463.000000	0.186499
462.000000	0.187235
461.000000	0.188688
460.000000	0.189619
459.000000	0.190165
458.000000	0.191097
457.000000	0.191991
456.000000	0.193880
455.000000	0.195751
454.000000	0.198354
453.000000	0.201098
452.000000	0.204385
451.000000	0.208117
450.000000	0.212119
449.000000	0.216847
448.000000	0.222328
447.000000	0.227402
446.000000	0.231961
445.000000	0.236450
444.000000	0.240612
443.000000	0.244443
442.000000	0.247205
441.000000	0.248977
440.000000	0.250277
439.000000	0.250990
438.000000	0.251292
437.000000	0.250898
436.000000	0.250038
435.000000	0.248629
434.000000	0.247433
433.000000	0.245312
432.000000	0.243066
431.000000	0.241752
430.000000	0.240190
429.000000	0.238376
428.000000	0.236599
427.000000	0.234687
426.000000	0.233429
425.000000	0.232527
424.000000	0.231517
423.000000	0.231209
422.000000	0.230879
421.000000	0.230085
420.000000	0.228832
419.000000	0.227997
418.000000	0.227388
417.000000	0.226064
416.000000	0.224815
415.000000	0.223795
414.000000	0.221611
413.000000	0.219568
412.000000	0.217081
411.000000	0.214591
410.000000	0.211905
409.000000	0.208845
408.000000	0.206353
407.000000	0.203039
406.000000	0.199608
405.000000	0.197249
404.000000	0.195142
403.000000	0.192247
402.000000	0.190177
401.000000	0.188940
400.000000	0.186803
399.000000	0.185528
398.000000	0.184357
397.000000	0.183313
396.000000	0.182197
395.000000	0.181003
394.000000	0.179733
393.000000	0.179660
392.000000	0.179609
391.000000	0.179389
390.000000	0.178484
389.000000	0.176852
388.000000	0.176697
387.000000	0.177070
386.000000	0.176632
385.000000	0.175690
384.000000	0.175344
383.000000	0.174552
382.000000	0.173536
381.000000	0.172379
380.000000	0.170512
379.000000	0.170543
378.000000	0.167831
377.000000	0.165273
376.000000	0.163259
375.000000	0.162534
374.000000	0.162083
373.000000	0.159705
372.000000	0.159494
371.000000	0.160134
370.000000	0.157206
369.000000	0.158053
368.000000	0.156186
367.000000	0.158231
366.000000	0.157550
365.000000	0.157685
364.000000	0.157362
363.000000	0.157423
362.000000	0.157010
361.000000	0.157670
360.000000	0.158673
359.000000	0.158927
358.000000	0.159122
357.000000	0.159735
356.000000	0.160393
355.000000	0.159365
354.000000	0.160938
353.000000	0.162840
352.000000	0.163332
351.000000	0.163226
350.000000	0.162836
349.000000	0.163349
348.000000	0.165646
347.000000	0.168930
346.000000	0.167565
345.000000	0.171359
344.000000	0.173104
343.000000	0.173176
342.000000	0.174035
341.000000	0.175515
340.000000	0.178271
339.000000	0.178307
338.000000	0.178690
337.000000	0.178977
336.000000	0.179220
335.000000	0.181170
334.000000	0.181201
333.000000	0.179845
332.000000	0.177935
331.000000	0.183231
330.000000	0.184693
329.000000	0.184523
328.000000	0.181247
327.000000	0.181991
326.000000	0.185957
325.000000	0.186918
324.000000	0.184516
323.000000	0.190497
322.000000	0.189673
321.000000	0.190274
320.000000	0.191126
319.000000	0.194788
318.000000	0.188288
317.000000	0.190497
316.000000	0.193649
315.000000	0.192531
314.000000	0.194122
313.000000	0.198928
312.000000	0.199491
311.000000	0.202953
310.000000	0.204158
309.000000	0.208012
308.000000	0.209242
307.000000	0.212817
306.000000	0.216018
305.000000	0.220678
304.000000	0.223932
303.000000	0.227072
302.000000	0.233732
301.000000	0.239018
300.000000	0.243007
