PE UV       SUBTECH     SPECTRUM    ASCII       PEDS        4.00        
   -1
PETIT_32.Sample.Raw.asc
20/12/15
09:47:21.00
20/12/15
09:47:21.00
CNRS
RCC1717_A_DM
300.000000
1
Lambda 850
850L1011221
PerkinElmer UV WinLab 6.0.3.0730 / 1.61.00 Lambda 800

0
0
2
0
0
UV/VIS
1
1
1
RBeamAtt,SBeamAtt,150mm sphere / downward view
0
0
0
0
Fix
 
0
0.2
0
0
0
 
 
 
0
 
0
319.2
0
Front
50
 
S:100 R:100
 
0
0
0
 
0
 
 
 
0
 
 
0
0
0
0
0
 
 
 
 
0
0


#HDR
-1
-1
#GR
nm
A
1.0
0.0
800.000000
-1.000000
501
8
0.053839
-0.015272
#DATA
800.000000	-0.014107
799.000000	-0.014226
798.000000	-0.014028
797.000000	-0.014050
796.000000	-0.015074
795.000000	-0.015272
794.000000	-0.014199
793.000000	-0.014961
792.000000	-0.013906
791.000000	-0.012917
790.000000	-0.013895
789.000000	-0.014249
788.000000	-0.012933
787.000000	-0.013069
786.000000	-0.014704
785.000000	-0.014875
784.000000	-0.013726
783.000000	-0.013870
782.000000	-0.013187
781.000000	-0.013545
780.000000	-0.014102
779.000000	-0.014627
778.000000	-0.012913
777.000000	-0.012983
776.000000	-0.013543
775.000000	-0.012682
774.000000	-0.012892
773.000000	-0.014402
772.000000	-0.014089
771.000000	-0.012786
770.000000	-0.013394
769.000000	-0.012201
768.000000	-0.013245
767.000000	-0.013958
766.000000	-0.013563
765.000000	-0.013879
764.000000	-0.013937
763.000000	-0.013387
762.000000	-0.013796
761.000000	-0.013385
760.000000	-0.013143
759.000000	-0.013789
758.000000	-0.014077
757.000000	-0.013782
756.000000	-0.014448
755.000000	-0.013041
754.000000	-0.013602
753.000000	-0.013562
752.000000	-0.013993
751.000000	-0.015262
750.000000	-0.014431
749.000000	-0.012916
748.000000	-0.012437
747.000000	-0.012659
746.000000	-0.012754
745.000000	-0.013379
744.000000	-0.014300
743.000000	-0.013881
742.000000	-0.014125
741.000000	-0.014245
740.000000	-0.013187
739.000000	-0.013951
738.000000	-0.013546
737.000000	-0.014094
736.000000	-0.013786
735.000000	-0.013839
734.000000	-0.013865
733.000000	-0.013612
732.000000	-0.014953
731.000000	-0.014979
730.000000	-0.014103
729.000000	-0.014461
728.000000	-0.013738
727.000000	-0.013653
726.000000	-0.014027
725.000000	-0.014061
724.000000	-0.013816
723.000000	-0.014073
722.000000	-0.013693
721.000000	-0.014073
720.000000	-0.014288
719.000000	-0.014070
718.000000	-0.013884
717.000000	-0.013634
716.000000	-0.013008
715.000000	-0.012954
714.000000	-0.012229
713.000000	-0.012595
712.000000	-0.011491
711.000000	-0.010800
710.000000	-0.011013
709.000000	-0.010438
708.000000	-0.009580
707.000000	-0.009685
706.000000	-0.009089
705.000000	-0.008844
704.000000	-0.008143
703.000000	-0.007576
702.000000	-0.006972
701.000000	-0.006400
700.000000	-0.005942
699.000000	-0.004713
698.000000	-0.003654
697.000000	-0.002887
696.000000	-0.002142
695.000000	-0.001046
694.000000	0.000036
693.000000	0.001562
692.000000	0.003514
691.000000	0.005181
690.000000	0.006987
689.000000	0.008551
688.000000	0.010358
687.000000	0.012425
686.000000	0.014589
685.000000	0.016856
684.000000	0.018704
683.000000	0.020266
682.000000	0.022368
681.000000	0.024005
680.000000	0.024827
679.000000	0.026464
678.000000	0.028302
677.000000	0.029788
676.000000	0.030724
675.000000	0.031293
674.000000	0.031141
673.000000	0.030206
672.000000	0.029456
671.000000	0.028607
670.000000	0.027699
669.000000	0.026098
668.000000	0.024315
667.000000	0.022269
666.000000	0.019999
665.000000	0.017897
664.000000	0.015496
663.000000	0.013474
662.000000	0.011296
661.000000	0.009392
660.000000	0.007858
659.000000	0.006518
658.000000	0.005202
657.000000	0.003435
656.000000	0.002339
655.000000	0.001909
654.000000	0.001310
653.000000	0.000572
652.000000	0.000092
651.000000	-0.000075
650.000000	-0.000573
649.000000	-0.000712
648.000000	-0.000417
647.000000	-0.000597
646.000000	-0.000515
645.000000	-0.000750
644.000000	-0.000962
643.000000	-0.000367
642.000000	-0.000190
641.000000	-0.000299
640.000000	0.000546
639.000000	0.000620
638.000000	0.000225
637.000000	0.001080
636.000000	0.000898
635.000000	0.000585
634.000000	0.000442
633.000000	0.000499
632.000000	0.000564
631.000000	0.000441
630.000000	0.000447
629.000000	-0.000187
628.000000	-0.000437
627.000000	-0.000508
626.000000	-0.000638
625.000000	-0.000518
624.000000	-0.000836
623.000000	-0.001276
622.000000	-0.001044
621.000000	-0.001333
620.000000	-0.001306
619.000000	-0.001828
618.000000	-0.002158
617.000000	-0.002175
616.000000	-0.002182
615.000000	-0.002632
614.000000	-0.002788
613.000000	-0.003107
612.000000	-0.003466
611.000000	-0.003813
610.000000	-0.003736
609.000000	-0.004539
608.000000	-0.004807
607.000000	-0.005143
606.000000	-0.004932
605.000000	-0.004972
604.000000	-0.005037
603.000000	-0.005469
602.000000	-0.005511
601.000000	-0.005046
600.000000	-0.005190
599.000000	-0.005034
598.000000	-0.005402
597.000000	-0.005493
596.000000	-0.005127
595.000000	-0.004823
594.000000	-0.004617
593.000000	-0.004548
592.000000	-0.004601
591.000000	-0.004138
590.000000	-0.004070
589.000000	-0.004286
588.000000	-0.004200
587.000000	-0.004147
586.000000	-0.004606
585.000000	-0.003643
584.000000	-0.003809
583.000000	-0.004020
582.000000	-0.004548
581.000000	-0.004284
580.000000	-0.003821
579.000000	-0.004046
578.000000	-0.004752
577.000000	-0.004245
576.000000	-0.004359
575.000000	-0.004332
574.000000	-0.003980
573.000000	-0.004170
572.000000	-0.003931
571.000000	-0.004804
570.000000	-0.003909
569.000000	-0.003525
568.000000	-0.003281
567.000000	-0.003773
566.000000	-0.002880
565.000000	-0.002607
564.000000	-0.002050
563.000000	-0.002779
562.000000	-0.001903
561.000000	-0.001591
560.000000	-0.001236
559.000000	-0.000911
558.000000	-0.000021
557.000000	0.000578
556.000000	0.000247
555.000000	0.000935
554.000000	0.001709
553.000000	0.002077
552.000000	0.001777
551.000000	0.003130
550.000000	0.002509
549.000000	0.003412
548.000000	0.004179
547.000000	0.003985
546.000000	0.004743
545.000000	0.005450
544.000000	0.005330
543.000000	0.005831
542.000000	0.006401
541.000000	0.006627
540.000000	0.006791
539.000000	0.006934
538.000000	0.007525
537.000000	0.008118
536.000000	0.007976
535.000000	0.008062
534.000000	0.008790
533.000000	0.009072
532.000000	0.009504
531.000000	0.008984
530.000000	0.009542
529.000000	0.009909
528.000000	0.010147
527.000000	0.010269
526.000000	0.010854
525.000000	0.011189
524.000000	0.011311
523.000000	0.011501
522.000000	0.011714
521.000000	0.011830
520.000000	0.012198
519.000000	0.012615
518.000000	0.012544
517.000000	0.012741
516.000000	0.013833
515.000000	0.013722
514.000000	0.014575
513.000000	0.015061
512.000000	0.015290
511.000000	0.015149
510.000000	0.015424
509.000000	0.015937
508.000000	0.016615
507.000000	0.017173
506.000000	0.017997
505.000000	0.018232
504.000000	0.018222
503.000000	0.018660
502.000000	0.019135
501.000000	0.020059
500.000000	0.020452
499.000000	0.020509
498.000000	0.021213
497.000000	0.021063
496.000000	0.022035
495.000000	0.021883
494.000000	0.022044
493.000000	0.022669
492.000000	0.023291
491.000000	0.023421
490.000000	0.023557
489.000000	0.024065
488.000000	0.023710
487.000000	0.024206
486.000000	0.025014
485.000000	0.025353
484.000000	0.025730
483.000000	0.026243
482.000000	0.027049
481.000000	0.026747
480.000000	0.027607
479.000000	0.028034
478.000000	0.029270
477.000000	0.030249
476.000000	0.031621
475.000000	0.032692
474.000000	0.033892
473.000000	0.035093
472.000000	0.035444
471.000000	0.035836
470.000000	0.037108
469.000000	0.038800
468.000000	0.039654
467.000000	0.040821
466.000000	0.041429
465.000000	0.041435
464.000000	0.042081
463.000000	0.042411
462.000000	0.042691
461.000000	0.043345
460.000000	0.043766
459.000000	0.043392
458.000000	0.043063
457.000000	0.043042
456.000000	0.043147
455.000000	0.043019
454.000000	0.043673
453.000000	0.043516
452.000000	0.043866
451.000000	0.044311
450.000000	0.044618
449.000000	0.044984
448.000000	0.046111
447.000000	0.047408
446.000000	0.047859
445.000000	0.048648
444.000000	0.049716
443.000000	0.050990
442.000000	0.051793
441.000000	0.051515
440.000000	0.051457
439.000000	0.052251
438.000000	0.053108
437.000000	0.053317
436.000000	0.052746
435.000000	0.052317
434.000000	0.052307
433.000000	0.052029
432.000000	0.051771
431.000000	0.051467
430.000000	0.050820
429.000000	0.050492
428.000000	0.049877
427.000000	0.048984
426.000000	0.049013
425.000000	0.048406
424.000000	0.047813
423.000000	0.048595
422.000000	0.048609
421.000000	0.048226
420.000000	0.047932
419.000000	0.047864
418.000000	0.048310
417.000000	0.048332
416.000000	0.047544
415.000000	0.048160
414.000000	0.048548
413.000000	0.047694
412.000000	0.047208
411.000000	0.047007
410.000000	0.046963
409.000000	0.046389
408.000000	0.045876
407.000000	0.045092
406.000000	0.044417
405.000000	0.044283
404.000000	0.044079
403.000000	0.043511
402.000000	0.042627
401.000000	0.041469
400.000000	0.041112
399.000000	0.040907
398.000000	0.040269
397.000000	0.040190
396.000000	0.039687
395.000000	0.038901
394.000000	0.039156
393.000000	0.039113
392.000000	0.038464
391.000000	0.038411
390.000000	0.038411
389.000000	0.038192
388.000000	0.038224
387.000000	0.037670
386.000000	0.036963
385.000000	0.036269
384.000000	0.035367
383.000000	0.035820
382.000000	0.036487
381.000000	0.035644
380.000000	0.033839
379.000000	0.034241
378.000000	0.033006
377.000000	0.031203
376.000000	0.032282
375.000000	0.031522
374.000000	0.028443
373.000000	0.028921
372.000000	0.030128
371.000000	0.028484
370.000000	0.026180
369.000000	0.027457
368.000000	0.027529
367.000000	0.025747
366.000000	0.025294
365.000000	0.025666
364.000000	0.024681
363.000000	0.023914
362.000000	0.023216
361.000000	0.022113
360.000000	0.020833
359.000000	0.021378
358.000000	0.021368
357.000000	0.021422
356.000000	0.021031
355.000000	0.020539
354.000000	0.019030
353.000000	0.017990
352.000000	0.018859
351.000000	0.017549
350.000000	0.016920
349.000000	0.018693
348.000000	0.019875
347.000000	0.019513
346.000000	0.017396
345.000000	0.019030
344.000000	0.021256
343.000000	0.021269
342.000000	0.021257
341.000000	0.018448
340.000000	0.023087
339.000000	0.024132
338.000000	0.022262
337.000000	0.020014
336.000000	0.022290
335.000000	0.022729
334.000000	0.021828
333.000000	0.022250
332.000000	0.021793
331.000000	0.024109
330.000000	0.023666
329.000000	0.023124
328.000000	0.018493
327.000000	0.022751
326.000000	0.024622
325.000000	0.021304
324.000000	0.023358
323.000000	0.025372
322.000000	0.026495
321.000000	0.025472
320.000000	0.024184
319.000000	0.025754
318.000000	0.026835
317.000000	0.026036
316.000000	0.026772
315.000000	0.027295
314.000000	0.028382
313.000000	0.027554
312.000000	0.028921
311.000000	0.030341
310.000000	0.033036
309.000000	0.033819
308.000000	0.036617
307.000000	0.037798
306.000000	0.039658
305.000000	0.042554
304.000000	0.045399
303.000000	0.044774
302.000000	0.051329
301.000000	0.053157
300.000000	0.053839
