PE UV       SUBTECH     SPECTRUM    ASCII       PEDS        4.00        
   -1
PETIT_45.Sample.Raw.asc
20/12/15
11:01:55.00
20/12/15
11:01:55.00
CNRS
RCC2379_B_D2
300.000000
1
Lambda 850
850L1011221
PerkinElmer UV WinLab 6.0.3.0730 / 1.61.00 Lambda 800

0
0
2
0
0
UV/VIS
1
1
1
RBeamAtt,SBeamAtt,150mm sphere / downward view
0
0
0
0
Fix
 
0
0.2
0
0
0
 
 
 
0
 
0
319.2
0
Front
50
 
S:100 R:100
 
0
0
0
 
0
 
 
 
0
 
 
0
0
0
0
0
 
 
 
 
0
0


#HDR
-1
-1
#GR
nm
A
1.0
0.0
800.000000
-1.000000
501
8
0.267637
-0.014290
#DATA
800.000000	-0.012435
799.000000	-0.011617
798.000000	-0.013137
797.000000	-0.012664
796.000000	-0.013090
795.000000	-0.014290
794.000000	-0.012921
793.000000	-0.013741
792.000000	-0.011461
791.000000	-0.011587
790.000000	-0.012957
789.000000	-0.013302
788.000000	-0.012584
787.000000	-0.012616
786.000000	-0.014002
785.000000	-0.013029
784.000000	-0.011295
783.000000	-0.013162
782.000000	-0.011880
781.000000	-0.013523
780.000000	-0.013979
779.000000	-0.012874
778.000000	-0.012139
777.000000	-0.012755
776.000000	-0.012030
775.000000	-0.012235
774.000000	-0.012429
773.000000	-0.012863
772.000000	-0.012995
771.000000	-0.012880
770.000000	-0.012198
769.000000	-0.011770
768.000000	-0.012386
767.000000	-0.012246
766.000000	-0.012633
765.000000	-0.012257
764.000000	-0.012550
763.000000	-0.012676
762.000000	-0.012058
761.000000	-0.012145
760.000000	-0.013353
759.000000	-0.012832
758.000000	-0.012888
757.000000	-0.012571
756.000000	-0.013472
755.000000	-0.011981
754.000000	-0.012157
753.000000	-0.013130
752.000000	-0.012964
751.000000	-0.013201
750.000000	-0.012318
749.000000	-0.011037
748.000000	-0.012019
747.000000	-0.012645
746.000000	-0.012806
745.000000	-0.013136
744.000000	-0.013352
743.000000	-0.012981
742.000000	-0.012486
741.000000	-0.012374
740.000000	-0.011999
739.000000	-0.013428
738.000000	-0.012474
737.000000	-0.012424
736.000000	-0.012697
735.000000	-0.012760
734.000000	-0.012737
733.000000	-0.013153
732.000000	-0.013235
731.000000	-0.012744
730.000000	-0.012684
729.000000	-0.012902
728.000000	-0.012708
727.000000	-0.013265
726.000000	-0.012615
725.000000	-0.012832
724.000000	-0.012729
723.000000	-0.013096
722.000000	-0.013084
721.000000	-0.013530
720.000000	-0.013474
719.000000	-0.012940
718.000000	-0.012434
717.000000	-0.012661
716.000000	-0.012520
715.000000	-0.011727
714.000000	-0.011188
713.000000	-0.011032
712.000000	-0.010856
711.000000	-0.010648
710.000000	-0.010288
709.000000	-0.010033
708.000000	-0.008817
707.000000	-0.007558
706.000000	-0.006506
705.000000	-0.006342
704.000000	-0.005202
703.000000	-0.003323
702.000000	-0.001055
701.000000	0.000762
700.000000	0.002522
699.000000	0.005722
698.000000	0.009121
697.000000	0.012386
696.000000	0.016254
695.000000	0.020832
694.000000	0.025655
693.000000	0.031162
692.000000	0.037260
691.000000	0.043136
690.000000	0.049477
689.000000	0.055994
688.000000	0.062421
687.000000	0.068771
686.000000	0.074996
685.000000	0.081149
684.000000	0.086473
683.000000	0.091149
682.000000	0.095088
681.000000	0.097774
680.000000	0.098884
679.000000	0.099101
678.000000	0.099335
677.000000	0.098926
676.000000	0.097833
675.000000	0.096117
674.000000	0.093882
673.000000	0.091383
672.000000	0.088891
671.000000	0.086265
670.000000	0.083174
669.000000	0.079757
668.000000	0.076312
667.000000	0.071863
666.000000	0.067386
665.000000	0.062985
664.000000	0.058332
663.000000	0.054183
662.000000	0.050051
661.000000	0.046042
660.000000	0.042218
659.000000	0.038691
658.000000	0.036269
657.000000	0.033535
656.000000	0.031205
655.000000	0.029538
654.000000	0.028198
653.000000	0.027263
652.000000	0.026594
651.000000	0.025945
650.000000	0.025371
649.000000	0.025203
648.000000	0.025121
647.000000	0.024995
646.000000	0.025139
645.000000	0.025258
644.000000	0.025444
643.000000	0.025948
642.000000	0.026644
641.000000	0.026709
640.000000	0.027500
639.000000	0.027402
638.000000	0.027655
637.000000	0.028363
636.000000	0.028150
635.000000	0.028373
634.000000	0.028574
633.000000	0.028950
632.000000	0.028859
631.000000	0.028899
630.000000	0.028828
629.000000	0.028215
628.000000	0.027544
627.000000	0.027627
626.000000	0.027171
625.000000	0.027005
624.000000	0.026372
623.000000	0.025641
622.000000	0.025588
621.000000	0.025540
620.000000	0.024857
619.000000	0.024243
618.000000	0.023686
617.000000	0.023168
616.000000	0.022396
615.000000	0.021317
614.000000	0.020734
613.000000	0.020341
612.000000	0.019369
611.000000	0.018471
610.000000	0.018289
609.000000	0.017141
608.000000	0.016961
607.000000	0.015982
606.000000	0.015585
605.000000	0.015809
604.000000	0.015484
603.000000	0.014923
602.000000	0.014390
601.000000	0.014732
600.000000	0.014786
599.000000	0.014708
598.000000	0.013939
597.000000	0.013800
596.000000	0.014063
595.000000	0.014193
594.000000	0.014573
593.000000	0.014464
592.000000	0.014616
591.000000	0.014815
590.000000	0.014861
589.000000	0.014509
588.000000	0.015074
587.000000	0.014966
586.000000	0.014329
585.000000	0.014774
584.000000	0.015211
583.000000	0.015252
582.000000	0.015622
581.000000	0.016179
580.000000	0.016721
579.000000	0.017650
578.000000	0.018575
577.000000	0.019638
576.000000	0.020914
575.000000	0.022226
574.000000	0.023656
573.000000	0.025738
572.000000	0.026785
571.000000	0.028036
570.000000	0.029142
569.000000	0.030491
568.000000	0.031676
567.000000	0.032397
566.000000	0.033199
565.000000	0.033679
564.000000	0.034652
563.000000	0.034886
562.000000	0.035063
561.000000	0.035865
560.000000	0.036255
559.000000	0.036822
558.000000	0.037362
557.000000	0.038336
556.000000	0.038804
555.000000	0.038712
554.000000	0.039286
553.000000	0.040924
552.000000	0.040565
551.000000	0.042156
550.000000	0.041809
549.000000	0.042614
548.000000	0.043522
547.000000	0.043870
546.000000	0.044235
545.000000	0.044704
544.000000	0.045426
543.000000	0.046045
542.000000	0.046249
541.000000	0.046639
540.000000	0.046967
539.000000	0.047452
538.000000	0.048420
537.000000	0.048499
536.000000	0.048964
535.000000	0.049450
534.000000	0.050180
533.000000	0.050707
532.000000	0.051175
531.000000	0.051743
530.000000	0.052763
529.000000	0.052923
528.000000	0.054751
527.000000	0.055876
526.000000	0.057754
525.000000	0.059112
524.000000	0.060886
523.000000	0.062087
522.000000	0.064326
521.000000	0.066828
520.000000	0.069086
519.000000	0.071691
518.000000	0.074188
517.000000	0.077242
516.000000	0.081138
515.000000	0.083842
514.000000	0.088029
513.000000	0.091861
512.000000	0.094862
511.000000	0.098933
510.000000	0.102446
509.000000	0.106854
508.000000	0.111331
507.000000	0.115702
506.000000	0.120359
505.000000	0.124622
504.000000	0.128326
503.000000	0.132425
502.000000	0.137211
501.000000	0.140832
500.000000	0.144629
499.000000	0.147326
498.000000	0.149926
497.000000	0.152220
496.000000	0.154558
495.000000	0.155583
494.000000	0.156943
493.000000	0.157760
492.000000	0.158431
491.000000	0.158281
490.000000	0.158089
489.000000	0.158255
488.000000	0.157214
487.000000	0.157204
486.000000	0.156956
485.000000	0.156204
484.000000	0.156135
483.000000	0.156475
482.000000	0.156850
481.000000	0.156716
480.000000	0.157136
479.000000	0.157838
478.000000	0.158480
477.000000	0.159745
476.000000	0.161753
475.000000	0.163184
474.000000	0.164622
473.000000	0.165979
472.000000	0.167378
471.000000	0.169093
470.000000	0.170891
469.000000	0.173027
468.000000	0.174916
467.000000	0.176958
466.000000	0.178691
465.000000	0.179746
464.000000	0.180888
463.000000	0.181536
462.000000	0.182344
461.000000	0.183769
460.000000	0.185071
459.000000	0.186044
458.000000	0.186691
457.000000	0.187628
456.000000	0.189369
455.000000	0.190752
454.000000	0.193076
453.000000	0.195379
452.000000	0.198780
451.000000	0.201620
450.000000	0.205066
449.000000	0.208815
448.000000	0.213085
447.000000	0.218087
446.000000	0.222143
445.000000	0.225813
444.000000	0.229036
443.000000	0.232388
442.000000	0.235374
441.000000	0.237200
440.000000	0.238291
439.000000	0.239551
438.000000	0.240839
437.000000	0.240740
436.000000	0.240172
435.000000	0.239828
434.000000	0.239466
433.000000	0.237950
432.000000	0.236378
431.000000	0.235477
430.000000	0.233856
429.000000	0.232517
428.000000	0.232180
427.000000	0.230833
426.000000	0.229880
425.000000	0.229794
424.000000	0.229047
423.000000	0.228675
422.000000	0.229314
421.000000	0.229121
420.000000	0.228002
419.000000	0.227872
418.000000	0.228331
417.000000	0.228129
416.000000	0.227307
415.000000	0.227503
414.000000	0.227240
413.000000	0.226805
412.000000	0.226160
411.000000	0.225483
410.000000	0.224766
409.000000	0.224048
408.000000	0.223956
407.000000	0.223290
406.000000	0.222609
405.000000	0.222169
404.000000	0.222423
403.000000	0.222124
402.000000	0.222403
401.000000	0.223261
400.000000	0.223983
399.000000	0.225376
398.000000	0.225808
397.000000	0.226619
396.000000	0.227113
395.000000	0.227832
394.000000	0.229360
393.000000	0.230641
392.000000	0.230711
391.000000	0.231512
390.000000	0.231853
389.000000	0.231435
388.000000	0.231678
387.000000	0.231906
386.000000	0.230780
385.000000	0.228721
384.000000	0.227502
383.000000	0.226172
382.000000	0.224671
381.000000	0.222498
380.000000	0.218866
379.000000	0.216095
378.000000	0.211878
377.000000	0.209748
376.000000	0.206276
375.000000	0.202604
374.000000	0.199758
373.000000	0.196498
372.000000	0.193636
371.000000	0.191815
370.000000	0.187929
369.000000	0.185843
368.000000	0.183417
367.000000	0.182403
366.000000	0.179903
365.000000	0.178004
364.000000	0.179732
363.000000	0.178965
362.000000	0.176999
361.000000	0.175055
360.000000	0.175132
359.000000	0.176125
358.000000	0.174734
357.000000	0.173191
356.000000	0.174865
355.000000	0.173822
354.000000	0.173733
353.000000	0.173278
352.000000	0.175989
351.000000	0.175242
350.000000	0.174053
349.000000	0.176232
348.000000	0.177183
347.000000	0.178538
346.000000	0.180297
345.000000	0.179680
344.000000	0.182465
343.000000	0.182260
342.000000	0.184758
341.000000	0.185146
340.000000	0.189013
339.000000	0.187625
338.000000	0.186779
337.000000	0.186872
336.000000	0.190754
335.000000	0.192400
334.000000	0.191046
333.000000	0.188325
332.000000	0.191033
331.000000	0.190241
330.000000	0.193892
329.000000	0.192707
328.000000	0.194057
327.000000	0.197452
326.000000	0.198946
325.000000	0.197828
324.000000	0.197074
323.000000	0.205077
322.000000	0.204767
321.000000	0.203348
320.000000	0.200659
319.000000	0.201826
318.000000	0.207553
317.000000	0.210796
316.000000	0.214987
315.000000	0.215876
314.000000	0.217143
313.000000	0.220478
312.000000	0.221188
311.000000	0.224292
310.000000	0.227490
309.000000	0.230467
308.000000	0.235648
307.000000	0.236939
306.000000	0.239498
305.000000	0.246114
304.000000	0.251582
303.000000	0.252953
302.000000	0.259343
301.000000	0.264514
300.000000	0.267637
