PE UV       SUBTECH     SPECTRUM    ASCII       PEDS        4.00        
   -1
PETIT_37.Sample.Raw.asc
20/12/15
10:05:06.00
20/12/15
10:05:06.00
CNRS
RCC2319_9511_C
300.000000
1
Lambda 850
850L1011221
PerkinElmer UV WinLab 6.0.3.0730 / 1.61.00 Lambda 800

0
0
2
0
0
UV/VIS
1
1
1
RBeamAtt,SBeamAtt,150mm sphere / downward view
0
0
0
0
Fix
 
0
0.2
0
0
0
 
 
 
0
 
0
319.2
0
Front
50
 
S:100 R:100
 
0
0
0
 
0
 
 
 
0
 
 
0
0
0
0
0
 
 
 
 
0
0


#HDR
-1
-1
#GR
nm
A
1.0
0.0
800.000000
-1.000000
501
8
0.385641
-0.013839
#DATA
800.000000	-0.010684
799.000000	-0.010294
798.000000	-0.012097
797.000000	-0.011020
796.000000	-0.011585
795.000000	-0.013839
794.000000	-0.012709
793.000000	-0.011666
792.000000	-0.012248
791.000000	-0.011494
790.000000	-0.011029
789.000000	-0.012067
788.000000	-0.011108
787.000000	-0.011386
786.000000	-0.012490
785.000000	-0.013378
784.000000	-0.011249
783.000000	-0.011766
782.000000	-0.010399
781.000000	-0.011967
780.000000	-0.012876
779.000000	-0.012819
778.000000	-0.011342
777.000000	-0.011320
776.000000	-0.011657
775.000000	-0.011313
774.000000	-0.011177
773.000000	-0.011782
772.000000	-0.011915
771.000000	-0.011700
770.000000	-0.012048
769.000000	-0.011072
768.000000	-0.012240
767.000000	-0.011863
766.000000	-0.012129
765.000000	-0.011911
764.000000	-0.011547
763.000000	-0.012233
762.000000	-0.012441
761.000000	-0.012069
760.000000	-0.012451
759.000000	-0.011660
758.000000	-0.012191
757.000000	-0.012752
756.000000	-0.012015
755.000000	-0.011007
754.000000	-0.012067
753.000000	-0.012275
752.000000	-0.012451
751.000000	-0.012863
750.000000	-0.011570
749.000000	-0.010891
748.000000	-0.010263
747.000000	-0.011346
746.000000	-0.011609
745.000000	-0.011526
744.000000	-0.011770
743.000000	-0.011243
742.000000	-0.011785
741.000000	-0.012039
740.000000	-0.010556
739.000000	-0.011928
738.000000	-0.011390
737.000000	-0.011437
736.000000	-0.011611
735.000000	-0.011551
734.000000	-0.011147
733.000000	-0.010806
732.000000	-0.011426
731.000000	-0.011193
730.000000	-0.010710
729.000000	-0.010447
728.000000	-0.009928
727.000000	-0.010134
726.000000	-0.009824
725.000000	-0.009232
724.000000	-0.009091
723.000000	-0.009823
722.000000	-0.008881
721.000000	-0.008440
720.000000	-0.008044
719.000000	-0.006846
718.000000	-0.005550
717.000000	-0.005212
716.000000	-0.004537
715.000000	-0.002903
714.000000	-0.001322
713.000000	0.000360
712.000000	0.001663
711.000000	0.002936
710.000000	0.004657
709.000000	0.006610
708.000000	0.008936
707.000000	0.011123
706.000000	0.013576
705.000000	0.016470
704.000000	0.019951
703.000000	0.022766
702.000000	0.026362
701.000000	0.030391
700.000000	0.035344
699.000000	0.040649
698.000000	0.046761
697.000000	0.053501
696.000000	0.060790
695.000000	0.068989
694.000000	0.078705
693.000000	0.089082
692.000000	0.099937
691.000000	0.111323
690.000000	0.123418
689.000000	0.135732
688.000000	0.148059
687.000000	0.160041
686.000000	0.171699
685.000000	0.183642
684.000000	0.194139
683.000000	0.203298
682.000000	0.211877
681.000000	0.218770
680.000000	0.224677
679.000000	0.229755
678.000000	0.233865
677.000000	0.236741
676.000000	0.238840
675.000000	0.239747
674.000000	0.239417
673.000000	0.238143
672.000000	0.235444
671.000000	0.231369
670.000000	0.226005
669.000000	0.219234
668.000000	0.211184
667.000000	0.202087
666.000000	0.192187
665.000000	0.181185
664.000000	0.170150
663.000000	0.159722
662.000000	0.149155
661.000000	0.138611
660.000000	0.129211
659.000000	0.120775
658.000000	0.113291
657.000000	0.105820
656.000000	0.099216
655.000000	0.094152
654.000000	0.089646
653.000000	0.085907
652.000000	0.083090
651.000000	0.080768
650.000000	0.078846
649.000000	0.077574
648.000000	0.076909
647.000000	0.076630
646.000000	0.076307
645.000000	0.076148
644.000000	0.076690
643.000000	0.077564
642.000000	0.078073
641.000000	0.078687
640.000000	0.080447
639.000000	0.081484
638.000000	0.081914
637.000000	0.082964
636.000000	0.083488
635.000000	0.083733
634.000000	0.083933
633.000000	0.084489
632.000000	0.084612
631.000000	0.084302
630.000000	0.083606
629.000000	0.082723
628.000000	0.081850
627.000000	0.080985
626.000000	0.080317
625.000000	0.079543
624.000000	0.079122
623.000000	0.078224
622.000000	0.077221
621.000000	0.076326
620.000000	0.075156
619.000000	0.073828
618.000000	0.072493
617.000000	0.071280
616.000000	0.070157
615.000000	0.068020
614.000000	0.066523
613.000000	0.065014
612.000000	0.063347
611.000000	0.061581
610.000000	0.060119
609.000000	0.058370
608.000000	0.057059
607.000000	0.055076
606.000000	0.054642
605.000000	0.053526
604.000000	0.052238
603.000000	0.051815
602.000000	0.050897
601.000000	0.050959
600.000000	0.050819
599.000000	0.050876
598.000000	0.050282
597.000000	0.050529
596.000000	0.051213
595.000000	0.051634
594.000000	0.051832
593.000000	0.051951
592.000000	0.052172
591.000000	0.052810
590.000000	0.052842
589.000000	0.052319
588.000000	0.052720
587.000000	0.052442
586.000000	0.052011
585.000000	0.052520
584.000000	0.052384
583.000000	0.051844
582.000000	0.051509
581.000000	0.051629
580.000000	0.051551
579.000000	0.051709
578.000000	0.051712
577.000000	0.052080
576.000000	0.052354
575.000000	0.053061
574.000000	0.053873
573.000000	0.054547
572.000000	0.055626
571.000000	0.056320
570.000000	0.057336
569.000000	0.058657
568.000000	0.060308
567.000000	0.061149
566.000000	0.063112
565.000000	0.064365
564.000000	0.066091
563.000000	0.068225
562.000000	0.070443
561.000000	0.072952
560.000000	0.075376
559.000000	0.077797
558.000000	0.080933
557.000000	0.083540
556.000000	0.085883
555.000000	0.087997
554.000000	0.090317
553.000000	0.093570
552.000000	0.094446
551.000000	0.097255
550.000000	0.098784
549.000000	0.099975
548.000000	0.101752
547.000000	0.102330
546.000000	0.103504
545.000000	0.104195
544.000000	0.104715
543.000000	0.105993
542.000000	0.106784
541.000000	0.107788
540.000000	0.107986
539.000000	0.108320
538.000000	0.109144
537.000000	0.110599
536.000000	0.110878
535.000000	0.111918
534.000000	0.112873
533.000000	0.113605
532.000000	0.114309
531.000000	0.115184
530.000000	0.116410
529.000000	0.117310
528.000000	0.119594
527.000000	0.122076
526.000000	0.123515
525.000000	0.126111
524.000000	0.128383
523.000000	0.130779
522.000000	0.134127
521.000000	0.136913
520.000000	0.140627
519.000000	0.144321
518.000000	0.148312
517.000000	0.152663
516.000000	0.157956
515.000000	0.162480
514.000000	0.168448
513.000000	0.174118
512.000000	0.178991
511.000000	0.184129
510.000000	0.189860
509.000000	0.196285
508.000000	0.202833
507.000000	0.208859
506.000000	0.214784
505.000000	0.220864
504.000000	0.225807
503.000000	0.231142
502.000000	0.236787
501.000000	0.241356
500.000000	0.246355
499.000000	0.250371
498.000000	0.253901
497.000000	0.257225
496.000000	0.260512
495.000000	0.262471
494.000000	0.264320
493.000000	0.266865
492.000000	0.268463
491.000000	0.270010
490.000000	0.271112
489.000000	0.272265
488.000000	0.272179
487.000000	0.272471
486.000000	0.273533
485.000000	0.273991
484.000000	0.274445
483.000000	0.275658
482.000000	0.276554
481.000000	0.277053
480.000000	0.277756
479.000000	0.278570
478.000000	0.281015
477.000000	0.283147
476.000000	0.286023
475.000000	0.289113
474.000000	0.292217
473.000000	0.295571
472.000000	0.298188
471.000000	0.301330
470.000000	0.305775
469.000000	0.309532
468.000000	0.312860
467.000000	0.316260
466.000000	0.319617
465.000000	0.323086
464.000000	0.326486
463.000000	0.329928
462.000000	0.333018
461.000000	0.335754
460.000000	0.338851
459.000000	0.341735
458.000000	0.344428
457.000000	0.346783
456.000000	0.349947
455.000000	0.352586
454.000000	0.355481
453.000000	0.358115
452.000000	0.361102
451.000000	0.363659
450.000000	0.366505
449.000000	0.369563
448.000000	0.373473
447.000000	0.376898
446.000000	0.379290
445.000000	0.381283
444.000000	0.382792
443.000000	0.384587
442.000000	0.385641
441.000000	0.385110
440.000000	0.384594
439.000000	0.383990
438.000000	0.383572
437.000000	0.382383
436.000000	0.381395
435.000000	0.380215
434.000000	0.378323
433.000000	0.376466
432.000000	0.374614
431.000000	0.372296
430.000000	0.370431
429.000000	0.368809
428.000000	0.366473
427.000000	0.364461
426.000000	0.363261
425.000000	0.361191
424.000000	0.358804
423.000000	0.357282
422.000000	0.355679
421.000000	0.353939
420.000000	0.351604
419.000000	0.349756
418.000000	0.348655
417.000000	0.346357
416.000000	0.343842
415.000000	0.341689
414.000000	0.338687
413.000000	0.335836
412.000000	0.332771
411.000000	0.329168
410.000000	0.326255
409.000000	0.323578
408.000000	0.320965
407.000000	0.317661
406.000000	0.313711
405.000000	0.311233
404.000000	0.308823
403.000000	0.305430
402.000000	0.302300
401.000000	0.300622
400.000000	0.298406
399.000000	0.296136
398.000000	0.294770
397.000000	0.293146
396.000000	0.290745
395.000000	0.288994
394.000000	0.288279
393.000000	0.286627
392.000000	0.284739
391.000000	0.284061
390.000000	0.282518
389.000000	0.280034
388.000000	0.279003
387.000000	0.277894
386.000000	0.275217
385.000000	0.272032
384.000000	0.269350
383.000000	0.267075
382.000000	0.264443
381.000000	0.261216
380.000000	0.256646
379.000000	0.253548
378.000000	0.245614
377.000000	0.239849
376.000000	0.235009
375.000000	0.232552
374.000000	0.227770
373.000000	0.224694
372.000000	0.222642
371.000000	0.217608
370.000000	0.215221
369.000000	0.214744
368.000000	0.212660
367.000000	0.209841
366.000000	0.207622
365.000000	0.205900
364.000000	0.203104
363.000000	0.200962
362.000000	0.199294
361.000000	0.197538
360.000000	0.196025
359.000000	0.194396
358.000000	0.194254
357.000000	0.192160
356.000000	0.193173
355.000000	0.191661
354.000000	0.189413
353.000000	0.188607
352.000000	0.189760
351.000000	0.187836
350.000000	0.187067
349.000000	0.189274
348.000000	0.189215
347.000000	0.190956
346.000000	0.193181
345.000000	0.193576
344.000000	0.194097
343.000000	0.195048
342.000000	0.194714
341.000000	0.192933
340.000000	0.197715
339.000000	0.195659
338.000000	0.193808
337.000000	0.192179
336.000000	0.193237
335.000000	0.193320
334.000000	0.191297
333.000000	0.190746
332.000000	0.189161
331.000000	0.188976
330.000000	0.189816
329.000000	0.187583
328.000000	0.186533
327.000000	0.185568
326.000000	0.184865
325.000000	0.185971
324.000000	0.183193
323.000000	0.185081
322.000000	0.185438
321.000000	0.184199
320.000000	0.184989
319.000000	0.180827
318.000000	0.179899
317.000000	0.180574
316.000000	0.182764
315.000000	0.183444
314.000000	0.183418
313.000000	0.183697
312.000000	0.183893
311.000000	0.186449
310.000000	0.186013
309.000000	0.188599
308.000000	0.192183
307.000000	0.194629
306.000000	0.198135
305.000000	0.201573
304.000000	0.204404
303.000000	0.206879
302.000000	0.216401
301.000000	0.223546
300.000000	0.228925
