PE UV       SUBTECH     SPECTRUM    ASCII       PEDS        4.00        
   -1
PETIT_30.Sample.Raw.asc
20/12/15
09:40:14.00
20/12/15
09:40:14.00
CNRS
RCC2374_A_DX
300.000000
1
Lambda 850
850L1011221
PerkinElmer UV WinLab 6.0.3.0730 / 1.61.00 Lambda 800

0
0
2
0
0
UV/VIS
1
1
1
RBeamAtt,SBeamAtt,150mm sphere / downward view
0
0
0
0
Fix
 
0
0.2
0
0
0
 
 
 
0
 
0
319.2
0
Front
50
 
S:100 R:100
 
0
0
0
 
0
 
 
 
0
 
 
0
0
0
0
0
 
 
 
 
0
0


#HDR
-1
-1
#GR
nm
A
1.0
0.0
800.000000
-1.000000
501
8
0.296744
-0.013042
#DATA
800.000000	-0.011248
799.000000	-0.011179
798.000000	-0.011943
797.000000	-0.010147
796.000000	-0.011754
795.000000	-0.013042
794.000000	-0.011494
793.000000	-0.012075
792.000000	-0.010869
791.000000	-0.009879
790.000000	-0.011515
789.000000	-0.010784
788.000000	-0.011704
787.000000	-0.011519
786.000000	-0.011685
785.000000	-0.011174
784.000000	-0.010482
783.000000	-0.011001
782.000000	-0.010393
781.000000	-0.010330
780.000000	-0.011327
779.000000	-0.011472
778.000000	-0.010960
777.000000	-0.011376
776.000000	-0.010593
775.000000	-0.010185
774.000000	-0.010983
773.000000	-0.011828
772.000000	-0.011260
771.000000	-0.011350
770.000000	-0.010701
769.000000	-0.010502
768.000000	-0.010600
767.000000	-0.010704
766.000000	-0.011025
765.000000	-0.011301
764.000000	-0.011077
763.000000	-0.010952
762.000000	-0.011713
761.000000	-0.011426
760.000000	-0.011602
759.000000	-0.010443
758.000000	-0.010814
757.000000	-0.011029
756.000000	-0.010709
755.000000	-0.009911
754.000000	-0.010826
753.000000	-0.011853
752.000000	-0.011613
751.000000	-0.012035
750.000000	-0.010854
749.000000	-0.010289
748.000000	-0.009803
747.000000	-0.010172
746.000000	-0.010691
745.000000	-0.010989
744.000000	-0.011386
743.000000	-0.011081
742.000000	-0.011275
741.000000	-0.011328
740.000000	-0.010131
739.000000	-0.011373
738.000000	-0.010194
737.000000	-0.011106
736.000000	-0.010724
735.000000	-0.011064
734.000000	-0.010956
733.000000	-0.011109
732.000000	-0.011946
731.000000	-0.011497
730.000000	-0.011535
729.000000	-0.011880
728.000000	-0.011127
727.000000	-0.010515
726.000000	-0.010299
725.000000	-0.010771
724.000000	-0.010834
723.000000	-0.011090
722.000000	-0.011400
721.000000	-0.011144
720.000000	-0.010929
719.000000	-0.010801
718.000000	-0.010575
717.000000	-0.010917
716.000000	-0.010456
715.000000	-0.010477
714.000000	-0.010168
713.000000	-0.009583
712.000000	-0.009201
711.000000	-0.009210
710.000000	-0.008563
709.000000	-0.008205
708.000000	-0.007519
707.000000	-0.006521
706.000000	-0.005368
705.000000	-0.004380
704.000000	-0.003108
703.000000	-0.002030
702.000000	-0.000712
701.000000	0.001472
700.000000	0.003541
699.000000	0.005912
698.000000	0.008880
697.000000	0.012212
696.000000	0.015996
695.000000	0.020484
694.000000	0.025363
693.000000	0.030314
692.000000	0.036294
691.000000	0.042222
690.000000	0.048187
689.000000	0.054317
688.000000	0.060877
687.000000	0.066836
686.000000	0.072480
685.000000	0.079080
684.000000	0.084665
683.000000	0.088726
682.000000	0.092772
681.000000	0.095361
680.000000	0.096219
679.000000	0.096721
678.000000	0.096998
677.000000	0.096399
676.000000	0.095531
675.000000	0.094091
674.000000	0.091824
673.000000	0.089318
672.000000	0.086607
671.000000	0.083969
670.000000	0.081101
669.000000	0.077504
668.000000	0.073230
667.000000	0.068658
666.000000	0.063765
665.000000	0.058802
664.000000	0.053963
663.000000	0.049738
662.000000	0.045663
661.000000	0.041308
660.000000	0.037395
659.000000	0.033685
658.000000	0.030854
657.000000	0.027938
656.000000	0.025309
655.000000	0.023749
654.000000	0.022448
653.000000	0.021422
652.000000	0.020709
651.000000	0.019783
650.000000	0.019178
649.000000	0.019308
648.000000	0.019403
647.000000	0.019423
646.000000	0.019704
645.000000	0.019596
644.000000	0.019924
643.000000	0.020829
642.000000	0.021023
641.000000	0.021327
640.000000	0.022187
639.000000	0.022550
638.000000	0.022850
637.000000	0.023746
636.000000	0.024028
635.000000	0.024064
634.000000	0.023948
633.000000	0.024770
632.000000	0.024910
631.000000	0.025083
630.000000	0.025323
629.000000	0.024885
628.000000	0.024591
627.000000	0.024400
626.000000	0.024474
625.000000	0.024391
624.000000	0.023901
623.000000	0.023435
622.000000	0.023281
621.000000	0.022943
620.000000	0.022233
619.000000	0.021808
618.000000	0.021030
617.000000	0.020915
616.000000	0.020287
615.000000	0.019320
614.000000	0.018559
613.000000	0.018204
612.000000	0.017941
611.000000	0.016888
610.000000	0.016394
609.000000	0.015383
608.000000	0.014988
607.000000	0.014198
606.000000	0.014063
605.000000	0.013753
604.000000	0.013076
603.000000	0.013073
602.000000	0.012430
601.000000	0.012637
600.000000	0.012344
599.000000	0.012719
598.000000	0.012037
597.000000	0.011871
596.000000	0.012152
595.000000	0.011851
594.000000	0.012180
593.000000	0.012236
592.000000	0.012559
591.000000	0.012409
590.000000	0.012620
589.000000	0.012034
588.000000	0.012644
587.000000	0.012294
586.000000	0.012174
585.000000	0.012617
584.000000	0.013417
583.000000	0.013130
582.000000	0.013099
581.000000	0.013360
580.000000	0.013857
579.000000	0.014624
578.000000	0.015517
577.000000	0.016644
576.000000	0.017329
575.000000	0.018903
574.000000	0.019951
573.000000	0.021698
572.000000	0.023643
571.000000	0.024789
570.000000	0.027147
569.000000	0.028956
568.000000	0.031157
567.000000	0.033010
566.000000	0.034936
565.000000	0.037496
564.000000	0.039872
563.000000	0.042193
562.000000	0.044663
561.000000	0.047301
560.000000	0.049852
559.000000	0.053016
558.000000	0.055803
557.000000	0.058883
556.000000	0.061092
555.000000	0.063779
554.000000	0.065715
553.000000	0.068351
552.000000	0.069731
551.000000	0.071859
550.000000	0.072787
549.000000	0.073296
548.000000	0.074693
547.000000	0.075021
546.000000	0.076084
545.000000	0.075705
544.000000	0.075821
543.000000	0.076123
542.000000	0.075708
541.000000	0.075511
540.000000	0.075406
539.000000	0.075130
538.000000	0.074952
537.000000	0.074708
536.000000	0.074195
535.000000	0.074125
534.000000	0.073766
533.000000	0.073203
532.000000	0.072414
531.000000	0.072603
530.000000	0.072693
529.000000	0.072531
528.000000	0.072732
527.000000	0.073012
526.000000	0.074291
525.000000	0.074818
524.000000	0.075252
523.000000	0.075858
522.000000	0.077346
521.000000	0.078271
520.000000	0.080185
519.000000	0.081790
518.000000	0.083855
517.000000	0.085741
516.000000	0.088596
515.000000	0.091022
514.000000	0.094225
513.000000	0.097021
512.000000	0.100123
511.000000	0.102936
510.000000	0.105733
509.000000	0.109182
508.000000	0.112319
507.000000	0.116240
506.000000	0.120275
505.000000	0.123420
504.000000	0.125784
503.000000	0.129389
502.000000	0.132870
501.000000	0.136000
500.000000	0.138208
499.000000	0.139844
498.000000	0.142150
497.000000	0.143566
496.000000	0.144387
495.000000	0.144761
494.000000	0.144747
493.000000	0.145258
492.000000	0.144995
491.000000	0.144490
490.000000	0.143649
489.000000	0.143339
488.000000	0.142044
487.000000	0.141776
486.000000	0.140837
485.000000	0.139878
484.000000	0.139382
483.000000	0.139233
482.000000	0.139588
481.000000	0.139393
480.000000	0.139424
479.000000	0.139522
478.000000	0.141373
477.000000	0.142053
476.000000	0.143270
475.000000	0.144626
474.000000	0.146365
473.000000	0.147615
472.000000	0.148077
471.000000	0.149354
470.000000	0.151183
469.000000	0.152912
468.000000	0.153729
467.000000	0.155253
466.000000	0.156334
465.000000	0.156580
464.000000	0.157340
463.000000	0.157794
462.000000	0.158049
461.000000	0.158993
460.000000	0.160840
459.000000	0.161226
458.000000	0.161618
457.000000	0.162910
456.000000	0.164510
455.000000	0.166628
454.000000	0.169322
453.000000	0.171517
452.000000	0.174718
451.000000	0.178567
450.000000	0.183126
449.000000	0.186737
448.000000	0.191200
447.000000	0.196437
446.000000	0.201058
445.000000	0.205360
444.000000	0.209271
443.000000	0.213590
442.000000	0.217034
441.000000	0.218950
440.000000	0.220124
439.000000	0.220898
438.000000	0.221584
437.000000	0.221650
436.000000	0.221181
435.000000	0.220405
434.000000	0.219636
433.000000	0.218485
432.000000	0.216943
431.000000	0.215666
430.000000	0.214399
429.000000	0.213008
428.000000	0.212136
427.000000	0.211248
426.000000	0.210622
425.000000	0.210413
424.000000	0.209847
423.000000	0.210191
422.000000	0.210811
421.000000	0.210932
420.000000	0.210891
419.000000	0.211084
418.000000	0.211501
417.000000	0.210925
416.000000	0.209990
415.000000	0.210523
414.000000	0.210000
413.000000	0.209025
412.000000	0.208357
411.000000	0.207368
410.000000	0.207172
409.000000	0.206270
408.000000	0.205258
407.000000	0.204383
406.000000	0.203680
405.000000	0.202769
404.000000	0.202036
403.000000	0.201841
402.000000	0.202011
401.000000	0.202737
400.000000	0.203458
399.000000	0.204484
398.000000	0.205009
397.000000	0.205896
396.000000	0.206353
395.000000	0.207384
394.000000	0.208912
393.000000	0.210500
392.000000	0.211372
391.000000	0.212739
390.000000	0.214030
389.000000	0.214975
388.000000	0.215623
387.000000	0.217153
386.000000	0.217943
385.000000	0.217246
384.000000	0.217840
383.000000	0.217787
382.000000	0.217897
381.000000	0.217397
380.000000	0.216159
379.000000	0.214932
378.000000	0.210751
377.000000	0.206568
376.000000	0.204666
375.000000	0.202365
374.000000	0.199285
373.000000	0.197629
372.000000	0.196142
371.000000	0.194562
370.000000	0.191412
369.000000	0.189831
368.000000	0.190333
367.000000	0.189942
366.000000	0.188581
365.000000	0.187585
364.000000	0.186696
363.000000	0.186614
362.000000	0.184455
361.000000	0.186128
360.000000	0.184850
359.000000	0.183193
358.000000	0.184062
357.000000	0.184313
356.000000	0.185597
355.000000	0.185590
354.000000	0.185130
353.000000	0.186869
352.000000	0.188179
351.000000	0.186777
350.000000	0.187972
349.000000	0.189225
348.000000	0.190877
347.000000	0.192946
346.000000	0.192240
345.000000	0.196143
344.000000	0.198396
343.000000	0.201545
342.000000	0.201160
341.000000	0.197774
340.000000	0.204335
339.000000	0.205545
338.000000	0.203826
337.000000	0.205343
336.000000	0.208951
335.000000	0.209950
334.000000	0.207358
333.000000	0.210912
332.000000	0.208511
331.000000	0.208094
330.000000	0.213823
329.000000	0.212220
328.000000	0.212673
327.000000	0.217804
326.000000	0.216162
325.000000	0.214560
324.000000	0.215825
323.000000	0.224145
322.000000	0.227270
321.000000	0.228428
320.000000	0.223289
319.000000	0.228343
318.000000	0.233179
317.000000	0.236532
316.000000	0.242626
315.000000	0.241414
314.000000	0.243725
313.000000	0.247883
312.000000	0.248986
311.000000	0.251331
310.000000	0.256035
309.000000	0.259107
308.000000	0.264230
307.000000	0.264925
306.000000	0.269917
305.000000	0.273769
304.000000	0.277504
303.000000	0.279235
302.000000	0.286902
301.000000	0.292717
300.000000	0.296744
