PE UV       SUBTECH     SPECTRUM    ASCII       PEDS        4.00        
   -1
PETIT_44.Sample.Raw.asc
20/12/15
10:57:11.00
20/12/15
10:57:11.00
CNRS
RCC4213_B_DM
300.000000
1
Lambda 850
850L1011221
PerkinElmer UV WinLab 6.0.3.0730 / 1.61.00 Lambda 800

0
0
2
0
0
UV/VIS
1
1
1
RBeamAtt,SBeamAtt,150mm sphere / downward view
0
0
0
0
Fix
 
0
0.2
0
0
0
 
 
 
0
 
0
319.2
0
Front
50
 
S:100 R:100
 
0
0
0
 
0
 
 
 
0
 
 
0
0
0
0
0
 
 
 
 
0
0


#HDR
-1
-1
#GR
nm
A
1.0
0.0
800.000000
-1.000000
501
8
0.094506
-0.015629
#DATA
800.000000	-0.013434
799.000000	-0.013126
798.000000	-0.013099
797.000000	-0.012522
796.000000	-0.013168
795.000000	-0.015629
794.000000	-0.013038
793.000000	-0.014393
792.000000	-0.012773
791.000000	-0.012173
790.000000	-0.012515
789.000000	-0.013566
788.000000	-0.013041
787.000000	-0.012372
786.000000	-0.013229
785.000000	-0.013868
784.000000	-0.013551
783.000000	-0.013623
782.000000	-0.012737
781.000000	-0.012807
780.000000	-0.013596
779.000000	-0.012980
778.000000	-0.012902
777.000000	-0.012979
776.000000	-0.012368
775.000000	-0.012761
774.000000	-0.013272
773.000000	-0.014112
772.000000	-0.013528
771.000000	-0.013101
770.000000	-0.012861
769.000000	-0.011985
768.000000	-0.012109
767.000000	-0.012611
766.000000	-0.012277
765.000000	-0.012409
764.000000	-0.013124
763.000000	-0.013038
762.000000	-0.013128
761.000000	-0.012256
760.000000	-0.013591
759.000000	-0.013500
758.000000	-0.013367
757.000000	-0.013406
756.000000	-0.013334
755.000000	-0.011734
754.000000	-0.012483
753.000000	-0.014127
752.000000	-0.014059
751.000000	-0.014049
750.000000	-0.013104
749.000000	-0.011632
748.000000	-0.012070
747.000000	-0.012884
746.000000	-0.013046
745.000000	-0.013172
744.000000	-0.013439
743.000000	-0.013332
742.000000	-0.013441
741.000000	-0.013084
740.000000	-0.012336
739.000000	-0.012883
738.000000	-0.012627
737.000000	-0.013413
736.000000	-0.012661
735.000000	-0.012776
734.000000	-0.012069
733.000000	-0.013595
732.000000	-0.013658
731.000000	-0.013276
730.000000	-0.014022
729.000000	-0.014222
728.000000	-0.013226
727.000000	-0.012726
726.000000	-0.013346
725.000000	-0.013739
724.000000	-0.014179
723.000000	-0.014028
722.000000	-0.013295
721.000000	-0.013406
720.000000	-0.014122
719.000000	-0.014245
718.000000	-0.014428
717.000000	-0.014143
716.000000	-0.014164
715.000000	-0.013509
714.000000	-0.013275
713.000000	-0.013657
712.000000	-0.013347
711.000000	-0.013644
710.000000	-0.013309
709.000000	-0.012850
708.000000	-0.012214
707.000000	-0.012657
706.000000	-0.012342
705.000000	-0.012202
704.000000	-0.011663
703.000000	-0.010758
702.000000	-0.010462
701.000000	-0.009937
700.000000	-0.009009
699.000000	-0.007840
698.000000	-0.005639
697.000000	-0.004087
696.000000	-0.002827
695.000000	-0.000445
694.000000	0.001469
693.000000	0.003592
692.000000	0.006521
691.000000	0.010239
690.000000	0.014391
689.000000	0.018196
688.000000	0.021961
687.000000	0.025537
686.000000	0.029539
685.000000	0.033982
684.000000	0.038201
683.000000	0.041958
682.000000	0.045743
681.000000	0.049380
680.000000	0.051725
679.000000	0.054536
678.000000	0.057652
677.000000	0.059674
676.000000	0.060649
675.000000	0.061670
674.000000	0.061446
673.000000	0.060403
672.000000	0.059736
671.000000	0.057978
670.000000	0.056021
669.000000	0.053688
668.000000	0.050241
667.000000	0.046782
666.000000	0.043616
665.000000	0.040265
664.000000	0.036404
663.000000	0.032929
662.000000	0.029771
661.000000	0.026440
660.000000	0.023383
659.000000	0.020624
658.000000	0.018345
657.000000	0.015708
656.000000	0.012916
655.000000	0.011374
654.000000	0.010158
653.000000	0.008815
652.000000	0.007711
651.000000	0.006632
650.000000	0.005950
649.000000	0.005820
648.000000	0.005838
647.000000	0.005680
646.000000	0.005934
645.000000	0.005975
644.000000	0.006108
643.000000	0.006784
642.000000	0.007080
641.000000	0.007106
640.000000	0.008178
639.000000	0.008299
638.000000	0.008562
637.000000	0.009229
636.000000	0.009434
635.000000	0.009326
634.000000	0.009185
633.000000	0.009537
632.000000	0.009407
631.000000	0.009235
630.000000	0.009052
629.000000	0.008429
628.000000	0.008362
627.000000	0.008257
626.000000	0.008176
625.000000	0.007992
624.000000	0.007980
623.000000	0.008030
622.000000	0.007676
621.000000	0.007450
620.000000	0.007630
619.000000	0.007312
618.000000	0.006850
617.000000	0.006438
616.000000	0.006180
615.000000	0.005111
614.000000	0.004698
613.000000	0.004669
612.000000	0.004337
611.000000	0.003458
610.000000	0.003385
609.000000	0.002471
608.000000	0.002236
607.000000	0.001564
606.000000	0.001304
605.000000	0.001781
604.000000	0.001022
603.000000	0.000865
602.000000	0.000254
601.000000	0.000290
600.000000	0.000549
599.000000	0.001162
598.000000	0.001213
597.000000	0.001298
596.000000	0.001587
595.000000	0.001578
594.000000	0.002122
593.000000	0.002321
592.000000	0.002445
591.000000	0.003138
590.000000	0.003393
589.000000	0.002856
588.000000	0.003149
587.000000	0.003523
586.000000	0.002979
585.000000	0.003221
584.000000	0.003697
583.000000	0.003167
582.000000	0.002751
581.000000	0.003135
580.000000	0.003473
579.000000	0.003452
578.000000	0.003546
577.000000	0.004150
576.000000	0.003752
575.000000	0.003950
574.000000	0.004378
573.000000	0.004725
572.000000	0.004469
571.000000	0.004543
570.000000	0.004887
569.000000	0.005398
568.000000	0.005725
567.000000	0.005560
566.000000	0.006955
565.000000	0.007187
564.000000	0.008188
563.000000	0.008456
562.000000	0.009350
561.000000	0.010132
560.000000	0.011016
559.000000	0.011327
558.000000	0.012469
557.000000	0.013621
556.000000	0.014130
555.000000	0.014630
554.000000	0.015832
553.000000	0.016978
552.000000	0.017007
551.000000	0.018770
550.000000	0.019047
549.000000	0.019982
548.000000	0.021278
547.000000	0.021622
546.000000	0.022253
545.000000	0.023205
544.000000	0.024220
543.000000	0.024703
542.000000	0.025590
541.000000	0.026412
540.000000	0.026538
539.000000	0.027319
538.000000	0.028404
537.000000	0.028642
536.000000	0.029002
535.000000	0.030122
534.000000	0.030870
533.000000	0.031045
532.000000	0.031144
531.000000	0.031457
530.000000	0.031865
529.000000	0.032298
528.000000	0.032837
527.000000	0.034000
526.000000	0.034423
525.000000	0.034451
524.000000	0.034834
523.000000	0.035202
522.000000	0.036245
521.000000	0.035938
520.000000	0.036316
519.000000	0.036796
518.000000	0.037752
517.000000	0.038266
516.000000	0.039148
515.000000	0.039713
514.000000	0.040760
513.000000	0.041480
512.000000	0.041972
511.000000	0.042421
510.000000	0.042772
509.000000	0.044188
508.000000	0.045171
507.000000	0.046145
506.000000	0.047471
505.000000	0.048473
504.000000	0.049030
503.000000	0.049985
502.000000	0.050887
501.000000	0.051675
500.000000	0.052769
499.000000	0.053109
498.000000	0.054141
497.000000	0.054993
496.000000	0.056213
495.000000	0.055879
494.000000	0.056837
493.000000	0.057303
492.000000	0.057965
491.000000	0.057676
490.000000	0.058015
489.000000	0.058489
488.000000	0.057627
487.000000	0.057986
486.000000	0.058212
485.000000	0.058209
484.000000	0.058002
483.000000	0.058424
482.000000	0.058870
481.000000	0.058568
480.000000	0.059150
479.000000	0.059469
478.000000	0.060353
477.000000	0.061173
476.000000	0.062383
475.000000	0.063667
474.000000	0.065183
473.000000	0.066290
472.000000	0.067270
471.000000	0.068206
470.000000	0.069493
469.000000	0.071026
468.000000	0.072310
467.000000	0.073779
466.000000	0.074654
465.000000	0.075498
464.000000	0.076308
463.000000	0.076622
462.000000	0.077625
461.000000	0.078680
460.000000	0.079133
459.000000	0.079189
458.000000	0.079101
457.000000	0.079281
456.000000	0.079709
455.000000	0.079621
454.000000	0.081099
453.000000	0.080933
452.000000	0.081582
451.000000	0.081836
450.000000	0.082486
449.000000	0.083462
448.000000	0.085154
447.000000	0.086805
446.000000	0.087930
445.000000	0.088813
444.000000	0.090162
443.000000	0.091828
442.000000	0.093151
441.000000	0.093548
440.000000	0.093544
439.000000	0.093593
438.000000	0.094278
437.000000	0.094506
436.000000	0.093795
435.000000	0.092987
434.000000	0.092993
433.000000	0.092199
432.000000	0.091150
431.000000	0.090548
430.000000	0.089406
429.000000	0.088255
428.000000	0.087125
427.000000	0.086013
426.000000	0.085706
425.000000	0.084998
424.000000	0.084009
423.000000	0.084152
422.000000	0.084084
421.000000	0.083151
420.000000	0.082511
419.000000	0.081953
418.000000	0.081866
417.000000	0.081334
416.000000	0.080520
415.000000	0.079790
414.000000	0.077914
413.000000	0.077076
412.000000	0.076499
411.000000	0.075308
410.000000	0.074357
409.000000	0.072952
408.000000	0.072059
407.000000	0.070781
406.000000	0.069004
405.000000	0.067326
404.000000	0.065608
403.000000	0.064777
402.000000	0.063669
401.000000	0.062302
400.000000	0.061113
399.000000	0.060292
398.000000	0.059464
397.000000	0.058955
396.000000	0.057930
395.000000	0.056836
394.000000	0.056194
393.000000	0.056006
392.000000	0.055135
391.000000	0.055291
390.000000	0.054533
389.000000	0.053615
388.000000	0.053507
387.000000	0.052534
386.000000	0.051374
385.000000	0.051008
384.000000	0.049913
383.000000	0.049159
382.000000	0.049579
381.000000	0.048256
380.000000	0.046315
379.000000	0.045743
378.000000	0.044794
377.000000	0.044281
376.000000	0.043418
375.000000	0.041811
374.000000	0.039279
373.000000	0.038392
372.000000	0.037616
371.000000	0.037393
370.000000	0.035469
369.000000	0.035865
368.000000	0.034637
367.000000	0.034302
366.000000	0.032592
365.000000	0.031062
364.000000	0.030198
363.000000	0.032304
362.000000	0.030455
361.000000	0.029707
360.000000	0.029410
359.000000	0.029389
358.000000	0.028772
357.000000	0.028157
356.000000	0.028723
355.000000	0.027806
354.000000	0.026068
353.000000	0.027264
352.000000	0.027290
351.000000	0.027167
350.000000	0.024162
349.000000	0.025392
348.000000	0.026082
347.000000	0.029198
346.000000	0.026318
345.000000	0.029096
344.000000	0.031038
343.000000	0.030124
342.000000	0.031936
341.000000	0.028913
340.000000	0.032400
339.000000	0.030650
338.000000	0.030405
337.000000	0.031069
336.000000	0.031128
335.000000	0.031649
334.000000	0.030316
333.000000	0.031326
332.000000	0.030608
331.000000	0.028321
330.000000	0.030384
329.000000	0.029812
328.000000	0.031091
327.000000	0.030430
326.000000	0.029534
325.000000	0.029781
324.000000	0.030595
323.000000	0.030371
322.000000	0.034188
321.000000	0.031412
320.000000	0.029649
319.000000	0.032240
318.000000	0.033660
317.000000	0.034006
316.000000	0.035012
315.000000	0.034215
314.000000	0.037158
313.000000	0.036818
312.000000	0.038810
311.000000	0.039935
310.000000	0.041749
309.000000	0.042202
308.000000	0.047523
307.000000	0.048567
306.000000	0.051317
305.000000	0.052996
304.000000	0.056365
303.000000	0.057554
302.000000	0.064817
301.000000	0.067399
300.000000	0.070974
