PE UV       SUBTECH     SPECTRUM    ASCII       PEDS        4.00        
   -1
PETIT_23.Sample.Raw.asc
20/12/15
09:16:01.00
20/12/15
09:16:01.00
CNRS
zeroair1
300.000000
1
Lambda 850
850L1011221
PerkinElmer UV WinLab 6.0.3.0730 / 1.61.00 Lambda 800

0
0
2
0
0
UV/VIS
1
1
1
RBeamAtt,SBeamAtt,150mm sphere / downward view
0
0
0
0
Fix
 
0
0.2
0
0
0
 
 
 
0
 
0
319.2
0
Front
50
 
S:100 R:100
 
0
0
0
 
0
 
 
 
0
 
 
0
0
0
0
0
 
 
 
 
0
0


#HDR
-1
-1
#GR
nm
A
1.0
0.0
800.000000
-1.000000
501
8
0.002800
-0.004153
#DATA
800.000000	0.000283
799.000000	-0.000830
798.000000	-0.000284
797.000000	0.001075
796.000000	-0.000299
795.000000	-0.001871
794.000000	-0.000787
793.000000	-0.001009
792.000000	0.000920
791.000000	0.001592
790.000000	0.000426
789.000000	-0.000222
788.000000	0.000210
787.000000	-0.000106
786.000000	-0.000623
785.000000	-0.000326
784.000000	-0.000250
783.000000	-0.001403
782.000000	0.000410
781.000000	0.000162
780.000000	0.000067
779.000000	-0.000593
778.000000	0.000019
777.000000	-0.000367
776.000000	0.000314
775.000000	0.000049
774.000000	0.000752
773.000000	-0.000176
772.000000	0.000229
771.000000	-0.000283
770.000000	0.000459
769.000000	0.000442
768.000000	-0.000360
767.000000	0.000047
766.000000	0.000268
765.000000	0.000266
764.000000	0.000360
763.000000	0.000220
762.000000	0.000667
761.000000	-0.000039
760.000000	-0.000321
759.000000	-0.000173
758.000000	-0.000344
757.000000	0.000432
756.000000	-0.000005
755.000000	0.001151
754.000000	-0.000187
753.000000	-0.000333
752.000000	-0.000652
751.000000	-0.000504
750.000000	0.000018
749.000000	0.001204
748.000000	0.000768
747.000000	-0.000254
746.000000	0.000008
745.000000	0.000111
744.000000	0.000112
743.000000	-0.000256
742.000000	-0.000053
741.000000	-0.000397
740.000000	0.000177
739.000000	0.000032
738.000000	-0.000281
737.000000	-0.000699
736.000000	0.000044
735.000000	0.000221
734.000000	0.000052
733.000000	-0.000210
732.000000	-0.000349
731.000000	-0.000612
730.000000	0.000286
729.000000	-0.000272
728.000000	-0.000201
727.000000	0.000259
726.000000	-0.000065
725.000000	0.000249
724.000000	0.000058
723.000000	-0.000359
722.000000	-0.000239
721.000000	-0.000220
720.000000	-0.000574
719.000000	-0.000427
718.000000	-0.000212
717.000000	-0.000377
716.000000	-0.000609
715.000000	0.000244
714.000000	0.000277
713.000000	-0.000106
712.000000	0.000072
711.000000	-0.000038
710.000000	-0.000288
709.000000	-0.000234
708.000000	0.000136
707.000000	0.000263
706.000000	-0.000006
705.000000	-0.000394
704.000000	-0.000055
703.000000	0.000357
702.000000	-0.000186
701.000000	-0.000362
700.000000	-0.000307
699.000000	-0.000226
698.000000	0.000244
697.000000	0.000526
696.000000	0.000124
695.000000	-0.000102
694.000000	-0.000054
693.000000	-0.000154
692.000000	-0.000017
691.000000	0.000066
690.000000	0.000289
689.000000	0.000422
688.000000	0.000299
687.000000	-0.000073
686.000000	-0.000306
685.000000	0.000441
684.000000	0.000621
683.000000	-0.000203
682.000000	-0.000079
681.000000	0.000084
680.000000	-0.000089
679.000000	0.000412
678.000000	0.000373
677.000000	0.000291
676.000000	0.000153
675.000000	-0.000046
674.000000	0.000217
673.000000	-0.000202
672.000000	-0.000545
671.000000	-0.000225
670.000000	-0.000038
669.000000	0.000003
668.000000	0.000128
667.000000	0.000166
666.000000	0.000006
665.000000	-0.000107
664.000000	-0.000449
663.000000	-0.000410
662.000000	-0.000009
661.000000	-0.000085
660.000000	-0.000046
659.000000	0.000205
658.000000	0.000510
657.000000	0.000206
656.000000	-0.000186
655.000000	0.000165
654.000000	0.000013
653.000000	-0.000262
652.000000	-0.000237
651.000000	-0.000303
650.000000	-0.000393
649.000000	-0.000177
648.000000	-0.000059
647.000000	-0.000201
646.000000	-0.000036
645.000000	0.000018
644.000000	0.000276
643.000000	0.000146
642.000000	-0.000204
641.000000	-0.000188
640.000000	0.000422
639.000000	0.000361
638.000000	-0.000349
637.000000	0.000194
636.000000	0.000193
635.000000	-0.000060
634.000000	-0.000186
633.000000	-0.000183
632.000000	0.000339
631.000000	0.000171
630.000000	0.000386
629.000000	0.000108
628.000000	-0.000117
627.000000	0.000017
626.000000	-0.000257
625.000000	0.000202
624.000000	0.000135
623.000000	0.000218
622.000000	-0.000079
621.000000	-0.000015
620.000000	0.000157
619.000000	0.000381
618.000000	-0.000018
617.000000	-0.000162
616.000000	0.000052
615.000000	-0.000158
614.000000	-0.000002
613.000000	0.000036
612.000000	0.000198
611.000000	-0.000052
610.000000	0.000088
609.000000	0.000156
608.000000	0.000179
607.000000	-0.000031
606.000000	0.000139
605.000000	0.000531
604.000000	-0.000197
603.000000	0.000069
602.000000	-0.000100
601.000000	0.000387
600.000000	-0.000087
599.000000	0.000204
598.000000	-0.000354
597.000000	-0.000149
596.000000	-0.000021
595.000000	-0.000310
594.000000	-0.000414
593.000000	-0.000298
592.000000	-0.000176
591.000000	0.000248
590.000000	0.000101
589.000000	-0.000192
588.000000	-0.000084
587.000000	-0.000094
586.000000	-0.000322
585.000000	0.000144
584.000000	0.000240
583.000000	-0.000487
582.000000	-0.000796
581.000000	-0.000318
580.000000	-0.000011
579.000000	-0.000339
578.000000	-0.000396
577.000000	-0.000054
576.000000	-0.000438
575.000000	0.000269
574.000000	0.000347
573.000000	0.000273
572.000000	0.000163
571.000000	-0.000158
570.000000	-0.000067
569.000000	-0.000260
568.000000	0.000022
567.000000	-0.000498
566.000000	0.000053
565.000000	0.000143
564.000000	0.000489
563.000000	0.000040
562.000000	-0.000087
561.000000	0.000214
560.000000	0.000048
559.000000	-0.000028
558.000000	0.000195
557.000000	0.000387
556.000000	-0.000036
555.000000	-0.000118
554.000000	-0.000091
553.000000	0.000169
552.000000	-0.000862
551.000000	0.000393
550.000000	-0.000411
549.000000	-0.000422
548.000000	0.000203
547.000000	-0.000144
546.000000	0.000166
545.000000	0.000260
544.000000	-0.000216
543.000000	0.000141
542.000000	-0.000032
541.000000	-0.000019
540.000000	-0.000097
539.000000	0.000085
538.000000	0.000028
537.000000	0.000326
536.000000	0.000018
535.000000	0.000116
534.000000	0.000491
533.000000	-0.000137
532.000000	-0.000119
531.000000	0.000025
530.000000	-0.000092
529.000000	-0.000235
528.000000	0.000172
527.000000	-0.000025
526.000000	0.000170
525.000000	0.000357
524.000000	-0.000079
523.000000	-0.000468
522.000000	-0.000069
521.000000	0.000020
520.000000	-0.000168
519.000000	-0.000418
518.000000	-0.000263
517.000000	-0.000395
516.000000	0.000061
515.000000	-0.000315
514.000000	0.000260
513.000000	0.000466
512.000000	0.000434
511.000000	-0.000301
510.000000	-0.000151
509.000000	-0.000120
508.000000	0.000081
507.000000	0.000114
506.000000	0.000152
505.000000	0.000426
504.000000	-0.000110
503.000000	-0.000687
502.000000	-0.000042
501.000000	0.000393
500.000000	0.000309
499.000000	0.000035
498.000000	-0.000227
497.000000	-0.000150
496.000000	0.000441
495.000000	0.000323
494.000000	0.000145
493.000000	0.000184
492.000000	0.000371
491.000000	-0.000124
490.000000	0.000008
489.000000	0.000037
488.000000	-0.000303
487.000000	-0.000408
486.000000	-0.000078
485.000000	0.000124
484.000000	-0.000099
483.000000	-0.000227
482.000000	0.000208
481.000000	-0.000142
480.000000	-0.000404
479.000000	-0.000069
478.000000	-0.000059
477.000000	-0.000369
476.000000	0.000062
475.000000	0.000044
474.000000	0.000151
473.000000	0.000184
472.000000	-0.000359
471.000000	-0.000436
470.000000	-0.000297
469.000000	0.000005
468.000000	0.000094
467.000000	0.000192
466.000000	0.000305
465.000000	-0.000043
464.000000	0.000036
463.000000	0.000116
462.000000	-0.000110
461.000000	0.000351
460.000000	0.000309
459.000000	-0.000251
458.000000	-0.000372
457.000000	0.000032
456.000000	0.000070
455.000000	-0.000267
454.000000	0.000091
453.000000	-0.000174
452.000000	-0.000064
451.000000	0.000226
450.000000	-0.000270
449.000000	-0.001000
448.000000	-0.000460
447.000000	0.000187
446.000000	0.000062
445.000000	-0.000183
444.000000	-0.000348
443.000000	0.000244
442.000000	0.000488
441.000000	-0.000296
440.000000	-0.000541
439.000000	-0.000284
438.000000	-0.000018
437.000000	0.000097
436.000000	-0.000275
435.000000	-0.000511
434.000000	-0.000249
433.000000	-0.000087
432.000000	-0.000171
431.000000	0.000005
430.000000	0.000012
429.000000	0.000225
428.000000	0.000313
427.000000	0.000067
426.000000	0.000076
425.000000	0.000067
424.000000	0.000220
423.000000	0.000486
422.000000	0.000755
421.000000	0.000511
420.000000	-0.000147
419.000000	-0.000063
418.000000	-0.000073
417.000000	-0.000599
416.000000	-0.000769
415.000000	0.000105
414.000000	-0.000183
413.000000	-0.000536
412.000000	-0.000136
411.000000	-0.000024
410.000000	-0.000041
409.000000	0.000118
408.000000	0.000830
407.000000	0.000438
406.000000	-0.000285
405.000000	0.000053
404.000000	0.000008
403.000000	-0.000231
402.000000	-0.000124
401.000000	-0.000016
400.000000	0.000030
399.000000	0.000190
398.000000	0.000481
397.000000	0.000637
396.000000	-0.000410
395.000000	-0.000816
394.000000	-0.000367
393.000000	-0.000369
392.000000	-0.000735
391.000000	-0.000039
390.000000	0.000252
389.000000	-0.000164
388.000000	0.000108
387.000000	-0.000158
386.000000	0.000144
385.000000	-0.000465
384.000000	-0.000255
383.000000	0.000664
382.000000	0.000384
381.000000	0.000468
380.000000	0.000667
379.000000	-0.000109
378.000000	0.000972
377.000000	0.001374
376.000000	0.001307
375.000000	0.000857
374.000000	-0.001108
373.000000	-0.001538
372.000000	0.001189
371.000000	0.001877
370.000000	-0.000764
369.000000	-0.000155
368.000000	0.001662
367.000000	0.001368
366.000000	0.000300
365.000000	-0.000931
364.000000	-0.000246
363.000000	-0.000208
362.000000	-0.001799
361.000000	-0.000526
360.000000	0.001549
359.000000	0.000425
358.000000	0.000313
357.000000	0.000701
356.000000	0.000936
355.000000	0.001494
354.000000	-0.000117
353.000000	-0.001116
352.000000	-0.000069
351.000000	-0.001606
350.000000	-0.003734
349.000000	-0.000960
348.000000	0.000639
347.000000	0.000288
346.000000	-0.000602
345.000000	-0.000106
344.000000	-0.000197
343.000000	0.000302
342.000000	0.000670
341.000000	-0.001641
340.000000	0.002800
339.000000	0.002723
338.000000	0.000835
337.000000	-0.001593
336.000000	0.000394
335.000000	0.000050
334.000000	0.001372
333.000000	0.001943
332.000000	0.001225
331.000000	-0.000339
330.000000	0.001743
329.000000	-0.001697
328.000000	-0.002527
327.000000	-0.000067
326.000000	-0.000214
325.000000	-0.001236
324.000000	-0.004153
323.000000	-0.001313
322.000000	-0.000555
321.000000	0.002374
320.000000	0.001538
319.000000	-0.001431
318.000000	0.001784
317.000000	-0.001316
316.000000	-0.000297
315.000000	-0.000028
314.000000	-0.001891
313.000000	-0.000467
312.000000	-0.000912
311.000000	-0.000652
310.000000	-0.000340
309.000000	0.000112
308.000000	0.000852
307.000000	-0.000977
306.000000	-0.000528
305.000000	-0.000290
304.000000	-0.001167
303.000000	-0.002948
302.000000	0.000543
301.000000	0.001787
300.000000	-0.000338
