PE UV       SUBTECH     SPECTRUM    ASCII       PEDS        4.00        
   -1
PETIT_25.Sample.Raw.asc
20/12/15
09:22:04.00
20/12/15
09:22:04.00
CNRS
Blanc02
300.000000
1
Lambda 850
850L1011221
PerkinElmer UV WinLab 6.0.3.0730 / 1.61.00 Lambda 800

0
0
2
0
0
UV/VIS
1
1
1
RBeamAtt,SBeamAtt,150mm sphere / downward view
0
0
0
0
Fix
 
0
0.2
0
0
0
 
 
 
0
 
0
319.2
0
Front
50
 
S:100 R:100
 
0
0
0
 
0
 
 
 
0
 
 
0
0
0
0
0
 
 
 
 
0
0


#HDR
-1
-1
#GR
nm
A
1.0
0.0
800.000000
-1.000000
501
8
0.009628
-0.022622
#DATA
800.000000	-0.014137
799.000000	-0.012989
798.000000	-0.014054
797.000000	-0.013550
796.000000	-0.015363
795.000000	-0.015419
794.000000	-0.014670
793.000000	-0.014589
792.000000	-0.014274
791.000000	-0.013705
790.000000	-0.013806
789.000000	-0.014510
788.000000	-0.012959
787.000000	-0.013698
786.000000	-0.014399
785.000000	-0.014689
784.000000	-0.013681
783.000000	-0.014479
782.000000	-0.012979
781.000000	-0.013014
780.000000	-0.013617
779.000000	-0.013529
778.000000	-0.013604
777.000000	-0.014197
776.000000	-0.011984
775.000000	-0.013002
774.000000	-0.013195
773.000000	-0.014084
772.000000	-0.013881
771.000000	-0.013746
770.000000	-0.013733
769.000000	-0.012744
768.000000	-0.013021
767.000000	-0.013612
766.000000	-0.014150
765.000000	-0.012514
764.000000	-0.013735
763.000000	-0.012989
762.000000	-0.013743
761.000000	-0.013645
760.000000	-0.013986
759.000000	-0.013283
758.000000	-0.014309
757.000000	-0.013128
756.000000	-0.014979
755.000000	-0.013116
754.000000	-0.013758
753.000000	-0.015003
752.000000	-0.013918
751.000000	-0.013983
750.000000	-0.013491
749.000000	-0.012386
748.000000	-0.012689
747.000000	-0.013443
746.000000	-0.014169
745.000000	-0.014874
744.000000	-0.014731
743.000000	-0.014296
742.000000	-0.013673
741.000000	-0.014048
740.000000	-0.013213
739.000000	-0.014519
738.000000	-0.014367
737.000000	-0.014215
736.000000	-0.014038
735.000000	-0.013854
734.000000	-0.013514
733.000000	-0.013905
732.000000	-0.014637
731.000000	-0.013984
730.000000	-0.014110
729.000000	-0.014610
728.000000	-0.014126
727.000000	-0.014416
726.000000	-0.014389
725.000000	-0.014463
724.000000	-0.014626
723.000000	-0.014469
722.000000	-0.014738
721.000000	-0.014560
720.000000	-0.014971
719.000000	-0.014921
718.000000	-0.014476
717.000000	-0.014475
716.000000	-0.014601
715.000000	-0.015105
714.000000	-0.014834
713.000000	-0.015227
712.000000	-0.015152
711.000000	-0.015088
710.000000	-0.014825
709.000000	-0.015022
708.000000	-0.015173
707.000000	-0.014939
706.000000	-0.014793
705.000000	-0.014885
704.000000	-0.015172
703.000000	-0.015112
702.000000	-0.014660
701.000000	-0.015035
700.000000	-0.015381
699.000000	-0.015124
698.000000	-0.014676
697.000000	-0.015116
696.000000	-0.015342
695.000000	-0.015176
694.000000	-0.015468
693.000000	-0.015749
692.000000	-0.014821
691.000000	-0.014791
690.000000	-0.014870
689.000000	-0.014716
688.000000	-0.014492
687.000000	-0.014872
686.000000	-0.015336
685.000000	-0.014782
684.000000	-0.014695
683.000000	-0.015123
682.000000	-0.015090
681.000000	-0.015340
680.000000	-0.015277
679.000000	-0.015056
678.000000	-0.014871
677.000000	-0.014889
676.000000	-0.014887
675.000000	-0.014764
674.000000	-0.014948
673.000000	-0.015042
672.000000	-0.015007
671.000000	-0.015153
670.000000	-0.014979
669.000000	-0.014970
668.000000	-0.015091
667.000000	-0.014958
666.000000	-0.014597
665.000000	-0.014933
664.000000	-0.015532
663.000000	-0.015554
662.000000	-0.015446
661.000000	-0.014968
660.000000	-0.014473
659.000000	-0.014537
658.000000	-0.014541
657.000000	-0.014830
656.000000	-0.015140
655.000000	-0.014856
654.000000	-0.014985
653.000000	-0.014992
652.000000	-0.014796
651.000000	-0.014858
650.000000	-0.015014
649.000000	-0.015131
648.000000	-0.015085
647.000000	-0.015163
646.000000	-0.014964
645.000000	-0.015054
644.000000	-0.015471
643.000000	-0.014755
642.000000	-0.014978
641.000000	-0.015440
640.000000	-0.014743
639.000000	-0.014885
638.000000	-0.015254
637.000000	-0.014506
636.000000	-0.014644
635.000000	-0.015257
634.000000	-0.015375
633.000000	-0.014771
632.000000	-0.014798
631.000000	-0.015176
630.000000	-0.014918
629.000000	-0.014949
628.000000	-0.015241
627.000000	-0.015032
626.000000	-0.015197
625.000000	-0.015142
624.000000	-0.014880
623.000000	-0.015410
622.000000	-0.015473
621.000000	-0.015085
620.000000	-0.014985
619.000000	-0.015341
618.000000	-0.015149
617.000000	-0.015247
616.000000	-0.015591
615.000000	-0.015845
614.000000	-0.015470
613.000000	-0.014977
612.000000	-0.014953
611.000000	-0.015091
610.000000	-0.015011
609.000000	-0.015282
608.000000	-0.014854
607.000000	-0.015362
606.000000	-0.015048
605.000000	-0.014481
604.000000	-0.014985
603.000000	-0.015036
602.000000	-0.015228
601.000000	-0.015094
600.000000	-0.015130
599.000000	-0.014931
598.000000	-0.015734
597.000000	-0.015292
596.000000	-0.015203
595.000000	-0.015004
594.000000	-0.015088
593.000000	-0.015464
592.000000	-0.015326
591.000000	-0.014788
590.000000	-0.015110
589.000000	-0.015443
588.000000	-0.014972
587.000000	-0.015389
586.000000	-0.015549
585.000000	-0.015189
584.000000	-0.015454
583.000000	-0.015562
582.000000	-0.015698
581.000000	-0.015427
580.000000	-0.015595
579.000000	-0.015221
578.000000	-0.015182
577.000000	-0.015322
576.000000	-0.015401
575.000000	-0.015197
574.000000	-0.015325
573.000000	-0.015068
572.000000	-0.015198
571.000000	-0.015876
570.000000	-0.015301
569.000000	-0.015512
568.000000	-0.015180
567.000000	-0.015419
566.000000	-0.014745
565.000000	-0.015090
564.000000	-0.015290
563.000000	-0.014811
562.000000	-0.014761
561.000000	-0.015082
560.000000	-0.015175
559.000000	-0.015052
558.000000	-0.014877
557.000000	-0.014788
556.000000	-0.014947
555.000000	-0.014518
554.000000	-0.015354
553.000000	-0.014539
552.000000	-0.014830
551.000000	-0.014181
550.000000	-0.015379
549.000000	-0.014741
548.000000	-0.015265
547.000000	-0.014266
546.000000	-0.014709
545.000000	-0.014721
544.000000	-0.014870
543.000000	-0.014629
542.000000	-0.014666
541.000000	-0.014646
540.000000	-0.014692
539.000000	-0.014825
538.000000	-0.014270
537.000000	-0.014986
536.000000	-0.014570
535.000000	-0.014528
534.000000	-0.014886
533.000000	-0.014147
532.000000	-0.015115
531.000000	-0.014793
530.000000	-0.014661
529.000000	-0.015018
528.000000	-0.015508
527.000000	-0.014818
526.000000	-0.014499
525.000000	-0.015097
524.000000	-0.015124
523.000000	-0.015058
522.000000	-0.014954
521.000000	-0.015054
520.000000	-0.015044
519.000000	-0.015300
518.000000	-0.015845
517.000000	-0.015564
516.000000	-0.014719
515.000000	-0.015022
514.000000	-0.014914
513.000000	-0.014762
512.000000	-0.014799
511.000000	-0.015055
510.000000	-0.015390
509.000000	-0.015485
508.000000	-0.015177
507.000000	-0.014866
506.000000	-0.014399
505.000000	-0.014768
504.000000	-0.015100
503.000000	-0.015223
502.000000	-0.014611
501.000000	-0.014296
500.000000	-0.014548
499.000000	-0.014558
498.000000	-0.015194
497.000000	-0.015166
496.000000	-0.014228
495.000000	-0.015038
494.000000	-0.014662
493.000000	-0.014447
492.000000	-0.014403
491.000000	-0.014428
490.000000	-0.014475
489.000000	-0.014588
488.000000	-0.014939
487.000000	-0.014726
486.000000	-0.014768
485.000000	-0.014493
484.000000	-0.014561
483.000000	-0.014622
482.000000	-0.014464
481.000000	-0.014887
480.000000	-0.014936
479.000000	-0.015152
478.000000	-0.014976
477.000000	-0.014693
476.000000	-0.014593
475.000000	-0.014844
474.000000	-0.014653
473.000000	-0.014504
472.000000	-0.014852
471.000000	-0.015584
470.000000	-0.015486
469.000000	-0.015012
468.000000	-0.015032
467.000000	-0.015442
466.000000	-0.015086
465.000000	-0.015167
464.000000	-0.015320
463.000000	-0.015654
462.000000	-0.015574
461.000000	-0.015221
460.000000	-0.014816
459.000000	-0.014717
458.000000	-0.015331
457.000000	-0.015382
456.000000	-0.015382
455.000000	-0.015244
454.000000	-0.015102
453.000000	-0.015753
452.000000	-0.015443
451.000000	-0.015212
450.000000	-0.015278
449.000000	-0.015713
448.000000	-0.014745
447.000000	-0.014583
446.000000	-0.014695
445.000000	-0.014892
444.000000	-0.015391
443.000000	-0.014891
442.000000	-0.014990
441.000000	-0.014960
440.000000	-0.015390
439.000000	-0.016052
438.000000	-0.015763
437.000000	-0.015370
436.000000	-0.015428
435.000000	-0.015791
434.000000	-0.015521
433.000000	-0.015846
432.000000	-0.015578
431.000000	-0.015385
430.000000	-0.015467
429.000000	-0.015752
428.000000	-0.015494
427.000000	-0.015288
426.000000	-0.015497
425.000000	-0.015202
424.000000	-0.015593
423.000000	-0.015524
422.000000	-0.015101
421.000000	-0.015778
420.000000	-0.016514
419.000000	-0.016550
418.000000	-0.016215
417.000000	-0.016553
416.000000	-0.017246
415.000000	-0.016709
414.000000	-0.016611
413.000000	-0.016598
412.000000	-0.016614
411.000000	-0.016704
410.000000	-0.016812
409.000000	-0.016797
408.000000	-0.016410
407.000000	-0.016796
406.000000	-0.016779
405.000000	-0.016386
404.000000	-0.016335
403.000000	-0.016532
402.000000	-0.017055
401.000000	-0.017403
400.000000	-0.017539
399.000000	-0.017341
398.000000	-0.016926
397.000000	-0.016709
396.000000	-0.017440
395.000000	-0.018069
394.000000	-0.017569
393.000000	-0.017099
392.000000	-0.017562
391.000000	-0.017477
390.000000	-0.017781
389.000000	-0.018011
388.000000	-0.017292
387.000000	-0.017445
386.000000	-0.017183
385.000000	-0.018041
384.000000	-0.017999
383.000000	-0.017718
382.000000	-0.017713
381.000000	-0.017862
380.000000	-0.018168
379.000000	-0.018292
378.000000	-0.017466
377.000000	-0.016525
376.000000	-0.016861
375.000000	-0.016664
374.000000	-0.017992
373.000000	-0.018450
372.000000	-0.017337
371.000000	-0.016971
370.000000	-0.018784
369.000000	-0.018111
368.000000	-0.017231
367.000000	-0.018202
366.000000	-0.018134
365.000000	-0.019126
364.000000	-0.018001
363.000000	-0.017878
362.000000	-0.018862
361.000000	-0.019264
360.000000	-0.019117
359.000000	-0.019079
358.000000	-0.018935
357.000000	-0.018238
356.000000	-0.018343
355.000000	-0.019592
354.000000	-0.019919
353.000000	-0.018986
352.000000	-0.019363
351.000000	-0.021729
350.000000	-0.022622
349.000000	-0.020485
348.000000	-0.020388
347.000000	-0.019729
346.000000	-0.018859
345.000000	-0.019385
344.000000	-0.018723
343.000000	-0.019507
342.000000	-0.019342
341.000000	-0.021165
340.000000	-0.017429
339.000000	-0.018539
338.000000	-0.021306
337.000000	-0.019775
336.000000	-0.017813
335.000000	-0.017791
334.000000	-0.019130
333.000000	-0.017802
332.000000	-0.017879
331.000000	-0.017234
330.000000	-0.018311
329.000000	-0.021915
328.000000	-0.020786
327.000000	-0.019078
326.000000	-0.016477
325.000000	-0.018439
324.000000	-0.018832
323.000000	-0.019383
322.000000	-0.014980
321.000000	-0.013937
320.000000	-0.013436
319.000000	-0.015878
318.000000	-0.015604
317.000000	-0.014025
316.000000	-0.012825
315.000000	-0.012786
314.000000	-0.010991
313.000000	-0.009181
312.000000	-0.009044
311.000000	-0.007477
310.000000	-0.006817
309.000000	-0.006698
308.000000	-0.002710
307.000000	-0.003889
306.000000	-0.000770
305.000000	0.001334
304.000000	0.002305
303.000000	0.004697
302.000000	0.008050
301.000000	0.009628
300.000000	0.008546
