PE UV       SUBTECH     SPECTRUM    ASCII       PEDS        4.00        
   -1
PETIT_50.Sample.Raw.asc
20/12/15
11:23:35.00
20/12/15
11:23:35.00
CNRS
RCC1717_2319_C
300.000000
1
Lambda 850
850L1011221
PerkinElmer UV WinLab 6.0.3.0730 / 1.61.00 Lambda 800

0
0
2
0
0
UV/VIS
1
1
1
RBeamAtt,SBeamAtt,150mm sphere / downward view
0
0
0
0
Fix
 
0
0.2
0
0
0
 
 
 
0
 
0
319.2
0
Front
50
 
S:100 R:100
 
0
0
0
 
0
 
 
 
0
 
 
0
0
0
0
0
 
 
 
 
0
0


#HDR
-1
-1
#GR
nm
A
1.0
0.0
800.000000
-1.000000
501
8
0.290351
-0.014348
#DATA
800.000000	-0.012825
799.000000	-0.012203
798.000000	-0.013518
797.000000	-0.012232
796.000000	-0.013920
795.000000	-0.014074
794.000000	-0.013145
793.000000	-0.012622
792.000000	-0.012921
791.000000	-0.013216
790.000000	-0.012939
789.000000	-0.012526
788.000000	-0.011585
787.000000	-0.012515
786.000000	-0.012678
785.000000	-0.014348
784.000000	-0.012614
783.000000	-0.013407
782.000000	-0.012564
781.000000	-0.011919
780.000000	-0.013516
779.000000	-0.013541
778.000000	-0.013000
777.000000	-0.013565
776.000000	-0.012608
775.000000	-0.011926
774.000000	-0.012530
773.000000	-0.013762
772.000000	-0.012995
771.000000	-0.012151
770.000000	-0.013915
769.000000	-0.012325
768.000000	-0.012032
767.000000	-0.012926
766.000000	-0.012495
765.000000	-0.013082
764.000000	-0.012801
763.000000	-0.012422
762.000000	-0.012859
761.000000	-0.012859
760.000000	-0.012606
759.000000	-0.012618
758.000000	-0.013005
757.000000	-0.012431
756.000000	-0.013299
755.000000	-0.011482
754.000000	-0.012706
753.000000	-0.013687
752.000000	-0.012711
751.000000	-0.012854
750.000000	-0.013209
749.000000	-0.011685
748.000000	-0.011672
747.000000	-0.011775
746.000000	-0.012345
745.000000	-0.012420
744.000000	-0.012934
743.000000	-0.012858
742.000000	-0.012081
741.000000	-0.011990
740.000000	-0.011052
739.000000	-0.012792
738.000000	-0.012498
737.000000	-0.012532
736.000000	-0.012179
735.000000	-0.012377
734.000000	-0.011928
733.000000	-0.012034
732.000000	-0.012386
731.000000	-0.011894
730.000000	-0.012298
729.000000	-0.012042
728.000000	-0.011021
727.000000	-0.010787
726.000000	-0.010222
725.000000	-0.010318
724.000000	-0.010072
723.000000	-0.009936
722.000000	-0.009469
721.000000	-0.009028
720.000000	-0.008161
719.000000	-0.007707
718.000000	-0.006982
717.000000	-0.006302
716.000000	-0.005094
715.000000	-0.003082
714.000000	-0.001437
713.000000	-0.000009
712.000000	0.001719
711.000000	0.003018
710.000000	0.004699
709.000000	0.006480
708.000000	0.008876
707.000000	0.010940
706.000000	0.013355
705.000000	0.015484
704.000000	0.018406
703.000000	0.021346
702.000000	0.024604
701.000000	0.028338
700.000000	0.032813
699.000000	0.038083
698.000000	0.043995
697.000000	0.049528
696.000000	0.055406
695.000000	0.062412
694.000000	0.069736
693.000000	0.077537
692.000000	0.086764
691.000000	0.096033
690.000000	0.105537
689.000000	0.115107
688.000000	0.124684
687.000000	0.133842
686.000000	0.142558
685.000000	0.151698
684.000000	0.159781
683.000000	0.165979
682.000000	0.171891
681.000000	0.176404
680.000000	0.179410
679.000000	0.182226
678.000000	0.183859
677.000000	0.184613
676.000000	0.184767
675.000000	0.183402
674.000000	0.181329
673.000000	0.178925
672.000000	0.175644
671.000000	0.171331
670.000000	0.166026
669.000000	0.160093
668.000000	0.153889
667.000000	0.146700
666.000000	0.138872
665.000000	0.131049
664.000000	0.122680
663.000000	0.114172
662.000000	0.106740
661.000000	0.099481
660.000000	0.092544
659.000000	0.086393
658.000000	0.081174
657.000000	0.075883
656.000000	0.071129
655.000000	0.067489
654.000000	0.064727
653.000000	0.062340
652.000000	0.060474
651.000000	0.058673
650.000000	0.057750
649.000000	0.057798
648.000000	0.057675
647.000000	0.057729
646.000000	0.058511
645.000000	0.059018
644.000000	0.059634
643.000000	0.060914
642.000000	0.061509
641.000000	0.062412
640.000000	0.063682
639.000000	0.064412
638.000000	0.064907
637.000000	0.066431
636.000000	0.067322
635.000000	0.067207
634.000000	0.067010
633.000000	0.067411
632.000000	0.067438
631.000000	0.067523
630.000000	0.067363
629.000000	0.066295
628.000000	0.065324
627.000000	0.064700
626.000000	0.064558
625.000000	0.064180
624.000000	0.063344
623.000000	0.062495
622.000000	0.061891
621.000000	0.061168
620.000000	0.059807
619.000000	0.058478
618.000000	0.057637
617.000000	0.056409
616.000000	0.055022
615.000000	0.053397
614.000000	0.051874
613.000000	0.050794
612.000000	0.049597
611.000000	0.047822
610.000000	0.046754
609.000000	0.045108
608.000000	0.044391
607.000000	0.043052
606.000000	0.042199
605.000000	0.041351
604.000000	0.040178
603.000000	0.040101
602.000000	0.039375
601.000000	0.039568
600.000000	0.039413
599.000000	0.039650
598.000000	0.039180
597.000000	0.039777
596.000000	0.040129
595.000000	0.041076
594.000000	0.041028
593.000000	0.041054
592.000000	0.041231
591.000000	0.041562
590.000000	0.042087
589.000000	0.042047
588.000000	0.042364
587.000000	0.042389
586.000000	0.042147
585.000000	0.042608
584.000000	0.043195
583.000000	0.042835
582.000000	0.043403
581.000000	0.043589
580.000000	0.044218
579.000000	0.045145
578.000000	0.046073
577.000000	0.047536
576.000000	0.048613
575.000000	0.050544
574.000000	0.052233
573.000000	0.054539
572.000000	0.056040
571.000000	0.057741
570.000000	0.059935
569.000000	0.062193
568.000000	0.064200
567.000000	0.066339
566.000000	0.069080
565.000000	0.071250
564.000000	0.073694
563.000000	0.076335
562.000000	0.079099
561.000000	0.083153
560.000000	0.086449
559.000000	0.089441
558.000000	0.093660
557.000000	0.097258
556.000000	0.100665
555.000000	0.103076
554.000000	0.106134
553.000000	0.109286
552.000000	0.110983
551.000000	0.113902
550.000000	0.115268
549.000000	0.116327
548.000000	0.117727
547.000000	0.118056
546.000000	0.118591
545.000000	0.119248
544.000000	0.119489
543.000000	0.119295
542.000000	0.119464
541.000000	0.119149
540.000000	0.119008
539.000000	0.118801
538.000000	0.119010
537.000000	0.118041
536.000000	0.117746
535.000000	0.117697
534.000000	0.117214
533.000000	0.117212
532.000000	0.116443
531.000000	0.116406
530.000000	0.116490
529.000000	0.116127
528.000000	0.116440
527.000000	0.117004
526.000000	0.117718
525.000000	0.117384
524.000000	0.118140
523.000000	0.118655
522.000000	0.120198
521.000000	0.121586
520.000000	0.122735
519.000000	0.124131
518.000000	0.125937
517.000000	0.127833
516.000000	0.130609
515.000000	0.133052
514.000000	0.136261
513.000000	0.139233
512.000000	0.142237
511.000000	0.145216
510.000000	0.148795
509.000000	0.152842
508.000000	0.156610
507.000000	0.161263
506.000000	0.165617
505.000000	0.169960
504.000000	0.173556
503.000000	0.177551
502.000000	0.181962
501.000000	0.185683
500.000000	0.189472
499.000000	0.192342
498.000000	0.195055
497.000000	0.197278
496.000000	0.199493
495.000000	0.200812
494.000000	0.202086
493.000000	0.203149
492.000000	0.203720
491.000000	0.204218
490.000000	0.204179
489.000000	0.204322
488.000000	0.203164
487.000000	0.203230
486.000000	0.202676
485.000000	0.201948
484.000000	0.201613
483.000000	0.200584
482.000000	0.200106
481.000000	0.199326
480.000000	0.199208
479.000000	0.199202
478.000000	0.199940
477.000000	0.200856
476.000000	0.202163
475.000000	0.203188
474.000000	0.204789
473.000000	0.206644
472.000000	0.208024
471.000000	0.209349
470.000000	0.211849
469.000000	0.214126
468.000000	0.216344
467.000000	0.218399
466.000000	0.220100
465.000000	0.221248
464.000000	0.221940
463.000000	0.223102
462.000000	0.224526
461.000000	0.225912
460.000000	0.226874
459.000000	0.227501
458.000000	0.228934
457.000000	0.230133
456.000000	0.231596
455.000000	0.234081
454.000000	0.236867
453.000000	0.239374
452.000000	0.242845
451.000000	0.247184
450.000000	0.251247
449.000000	0.255595
448.000000	0.260546
447.000000	0.265946
446.000000	0.270575
445.000000	0.275244
444.000000	0.279459
443.000000	0.282842
442.000000	0.286200
441.000000	0.288045
440.000000	0.289477
439.000000	0.290114
438.000000	0.290351
437.000000	0.290010
436.000000	0.289073
435.000000	0.287461
434.000000	0.285995
433.000000	0.283995
432.000000	0.281670
431.000000	0.280109
430.000000	0.277639
429.000000	0.275592
428.000000	0.273657
427.000000	0.271343
426.000000	0.270505
425.000000	0.269764
424.000000	0.268573
423.000000	0.268541
422.000000	0.268286
421.000000	0.267484
420.000000	0.266677
419.000000	0.266297
418.000000	0.265577
417.000000	0.264056
416.000000	0.262851
415.000000	0.262306
414.000000	0.260327
413.000000	0.257788
412.000000	0.255883
411.000000	0.253213
410.000000	0.250892
409.000000	0.247761
408.000000	0.244762
407.000000	0.241830
406.000000	0.238075
405.000000	0.235062
404.000000	0.232278
403.000000	0.229344
402.000000	0.226292
401.000000	0.224088
400.000000	0.222104
399.000000	0.220771
398.000000	0.219249
397.000000	0.217671
396.000000	0.216190
395.000000	0.214559
394.000000	0.213633
393.000000	0.212830
392.000000	0.211806
391.000000	0.211100
390.000000	0.210573
389.000000	0.209148
388.000000	0.207832
387.000000	0.207069
386.000000	0.206085
385.000000	0.204480
384.000000	0.203096
383.000000	0.201996
382.000000	0.200412
381.000000	0.199173
380.000000	0.196725
379.000000	0.195066
378.000000	0.189727
377.000000	0.184581
376.000000	0.182142
375.000000	0.181411
374.000000	0.178813
373.000000	0.176833
372.000000	0.174869
371.000000	0.172921
370.000000	0.170602
369.000000	0.169906
368.000000	0.168528
367.000000	0.167085
366.000000	0.165795
365.000000	0.164206
364.000000	0.162260
363.000000	0.160832
362.000000	0.159484
361.000000	0.157811
360.000000	0.158108
359.000000	0.157104
358.000000	0.155612
357.000000	0.153571
356.000000	0.153224
355.000000	0.152046
354.000000	0.152112
353.000000	0.152821
352.000000	0.152105
351.000000	0.151112
350.000000	0.150076
349.000000	0.151464
348.000000	0.152902
347.000000	0.154714
346.000000	0.153585
345.000000	0.155422
344.000000	0.158081
343.000000	0.156222
342.000000	0.157490
341.000000	0.157446
340.000000	0.159848
339.000000	0.158015
338.000000	0.157158
337.000000	0.158099
336.000000	0.160106
335.000000	0.160550
334.000000	0.157672
333.000000	0.158539
332.000000	0.157300
331.000000	0.155686
330.000000	0.155398
329.000000	0.155339
328.000000	0.151294
327.000000	0.154442
326.000000	0.157275
325.000000	0.153034
324.000000	0.151300
323.000000	0.150767
322.000000	0.153502
321.000000	0.151601
320.000000	0.147749
319.000000	0.149611
318.000000	0.146173
317.000000	0.145457
316.000000	0.148134
315.000000	0.147825
314.000000	0.147270
313.000000	0.148668
312.000000	0.149231
311.000000	0.150187
310.000000	0.152402
309.000000	0.153330
308.000000	0.158403
307.000000	0.159348
306.000000	0.163683
305.000000	0.167118
304.000000	0.169720
303.000000	0.172533
302.000000	0.181599
301.000000	0.186458
300.000000	0.193533
