PE UV       SUBTECH     SPECTRUM    ASCII       PEDS        4.00        
   -1
PETIT_39.Sample.Raw.asc
20/12/15
10:34:05.00
20/12/15
10:34:05.00
CNRS
RCC2379_B_DM
300.000000
1
Lambda 850
850L1011221
PerkinElmer UV WinLab 6.0.3.0730 / 1.61.00 Lambda 800

0
0
2
0
0
UV/VIS
1
1
1
RBeamAtt,SBeamAtt,150mm sphere / downward view
0
0
0
0
Fix
 
0
0.2
0
0
0
 
 
 
0
 
0
319.2
0
Front
50
 
S:100 R:100
 
0
0
0
 
0
 
 
 
0
 
 
0
0
0
0
0
 
 
 
 
0
0


#HDR
-1
-1
#GR
nm
A
1.0
0.0
800.000000
-1.000000
501
8
0.094881
-0.013580
#DATA
800.000000	-0.012000
799.000000	-0.011409
798.000000	-0.012660
797.000000	-0.012402
796.000000	-0.013000
795.000000	-0.013078
794.000000	-0.011567
793.000000	-0.012246
792.000000	-0.012697
791.000000	-0.010673
790.000000	-0.010994
789.000000	-0.011662
788.000000	-0.012290
787.000000	-0.011989
786.000000	-0.013580
785.000000	-0.012450
784.000000	-0.010613
783.000000	-0.011218
782.000000	-0.011561
781.000000	-0.011169
780.000000	-0.012510
779.000000	-0.012989
778.000000	-0.011080
777.000000	-0.012223
776.000000	-0.011058
775.000000	-0.009686
774.000000	-0.010671
773.000000	-0.011453
772.000000	-0.011709
771.000000	-0.012996
770.000000	-0.011551
769.000000	-0.010247
768.000000	-0.011280
767.000000	-0.010922
766.000000	-0.011624
765.000000	-0.011379
764.000000	-0.011437
763.000000	-0.011446
762.000000	-0.012086
761.000000	-0.011505
760.000000	-0.012442
759.000000	-0.011631
758.000000	-0.011553
757.000000	-0.010789
756.000000	-0.012191
755.000000	-0.011155
754.000000	-0.011245
753.000000	-0.012797
752.000000	-0.012342
751.000000	-0.012970
750.000000	-0.011577
749.000000	-0.011050
748.000000	-0.010955
747.000000	-0.011197
746.000000	-0.011677
745.000000	-0.012158
744.000000	-0.012545
743.000000	-0.011479
742.000000	-0.011723
741.000000	-0.013117
740.000000	-0.011669
739.000000	-0.012029
738.000000	-0.011315
737.000000	-0.012224
736.000000	-0.011777
735.000000	-0.011887
734.000000	-0.011603
733.000000	-0.012313
732.000000	-0.012834
731.000000	-0.012374
730.000000	-0.012617
729.000000	-0.013046
728.000000	-0.012317
727.000000	-0.012237
726.000000	-0.013032
725.000000	-0.012416
724.000000	-0.012733
723.000000	-0.012963
722.000000	-0.012813
721.000000	-0.012732
720.000000	-0.013329
719.000000	-0.013070
718.000000	-0.013007
717.000000	-0.013154
716.000000	-0.012856
715.000000	-0.013392
714.000000	-0.012798
713.000000	-0.012912
712.000000	-0.012492
711.000000	-0.012524
710.000000	-0.012436
709.000000	-0.012194
708.000000	-0.012221
707.000000	-0.011907
706.000000	-0.011236
705.000000	-0.011136
704.000000	-0.010760
703.000000	-0.010612
702.000000	-0.010162
701.000000	-0.009086
700.000000	-0.007739
699.000000	-0.006973
698.000000	-0.005964
697.000000	-0.004397
696.000000	-0.003010
695.000000	-0.001674
694.000000	0.000382
693.000000	0.002303
692.000000	0.004830
691.000000	0.007189
690.000000	0.009718
689.000000	0.011900
688.000000	0.014569
687.000000	0.017263
686.000000	0.019631
685.000000	0.022388
684.000000	0.024711
683.000000	0.026611
682.000000	0.028307
681.000000	0.029260
680.000000	0.029630
679.000000	0.030279
678.000000	0.030592
677.000000	0.030187
676.000000	0.029675
675.000000	0.028959
674.000000	0.027803
673.000000	0.026434
672.000000	0.025118
671.000000	0.024180
670.000000	0.023210
669.000000	0.021591
668.000000	0.020287
667.000000	0.018398
666.000000	0.016365
665.000000	0.014556
664.000000	0.012481
663.000000	0.011090
662.000000	0.009517
661.000000	0.007693
660.000000	0.006094
659.000000	0.005084
658.000000	0.004580
657.000000	0.003279
656.000000	0.002247
655.000000	0.001875
654.000000	0.001223
653.000000	0.000905
652.000000	0.000851
651.000000	0.000258
650.000000	0.000237
649.000000	0.000134
648.000000	0.000062
647.000000	0.000008
646.000000	0.000172
645.000000	0.000259
644.000000	0.000216
643.000000	0.000521
642.000000	0.000403
641.000000	0.000326
640.000000	0.001432
639.000000	0.001059
638.000000	0.000731
637.000000	0.001362
636.000000	0.001463
635.000000	0.001206
634.000000	0.001015
633.000000	0.001323
632.000000	0.001230
631.000000	0.001255
630.000000	0.001277
629.000000	0.001183
628.000000	0.000832
627.000000	0.000516
626.000000	0.000542
625.000000	0.000624
624.000000	0.000214
623.000000	0.000091
622.000000	0.000098
621.000000	-0.000367
620.000000	-0.000430
619.000000	-0.000870
618.000000	-0.001107
617.000000	-0.001355
616.000000	-0.001770
615.000000	-0.002232
614.000000	-0.002088
613.000000	-0.002458
612.000000	-0.002135
611.000000	-0.002744
610.000000	-0.002795
609.000000	-0.003496
608.000000	-0.003499
607.000000	-0.004213
606.000000	-0.003971
605.000000	-0.003546
604.000000	-0.004140
603.000000	-0.004301
602.000000	-0.005102
601.000000	-0.004409
600.000000	-0.004507
599.000000	-0.004207
598.000000	-0.004894
597.000000	-0.005097
596.000000	-0.005090
595.000000	-0.004682
594.000000	-0.004563
593.000000	-0.004963
592.000000	-0.004587
591.000000	-0.004788
590.000000	-0.004926
589.000000	-0.005251
588.000000	-0.004912
587.000000	-0.004875
586.000000	-0.004730
585.000000	-0.004618
584.000000	-0.004561
583.000000	-0.004864
582.000000	-0.004825
581.000000	-0.004612
580.000000	-0.004123
579.000000	-0.004409
578.000000	-0.003844
577.000000	-0.003216
576.000000	-0.003001
575.000000	-0.002431
574.000000	-0.001505
573.000000	-0.001361
572.000000	-0.000854
571.000000	-0.000599
570.000000	0.000287
569.000000	0.000619
568.000000	0.000982
567.000000	0.001264
566.000000	0.001884
565.000000	0.002154
564.000000	0.002416
563.000000	0.002533
562.000000	0.002787
561.000000	0.002726
560.000000	0.003354
559.000000	0.003247
558.000000	0.003721
557.000000	0.003624
556.000000	0.003914
555.000000	0.003317
554.000000	0.004255
553.000000	0.004593
552.000000	0.004837
551.000000	0.005325
550.000000	0.004629
549.000000	0.005027
548.000000	0.005703
547.000000	0.006040
546.000000	0.005971
545.000000	0.006326
544.000000	0.006301
543.000000	0.006674
542.000000	0.006539
541.000000	0.006959
540.000000	0.006769
539.000000	0.007134
538.000000	0.007515
537.000000	0.007588
536.000000	0.007754
535.000000	0.007894
534.000000	0.007737
533.000000	0.007961
532.000000	0.008136
531.000000	0.008545
530.000000	0.008724
529.000000	0.009105
528.000000	0.009720
527.000000	0.009634
526.000000	0.010867
525.000000	0.010473
524.000000	0.012011
523.000000	0.012063
522.000000	0.013735
521.000000	0.014298
520.000000	0.015452
519.000000	0.016266
518.000000	0.017673
517.000000	0.018568
516.000000	0.020343
515.000000	0.021989
514.000000	0.023939
513.000000	0.025270
512.000000	0.026950
511.000000	0.028071
510.000000	0.029519
509.000000	0.031734
508.000000	0.034113
507.000000	0.036459
506.000000	0.038649
505.000000	0.040807
504.000000	0.042235
503.000000	0.044517
502.000000	0.047114
501.000000	0.049484
500.000000	0.051417
499.000000	0.052759
498.000000	0.054178
497.000000	0.055667
496.000000	0.057053
495.000000	0.056866
494.000000	0.057278
493.000000	0.058125
492.000000	0.058583
491.000000	0.058158
490.000000	0.057952
489.000000	0.057946
488.000000	0.056627
487.000000	0.056569
486.000000	0.056482
485.000000	0.056272
484.000000	0.055851
483.000000	0.055308
482.000000	0.055542
481.000000	0.054972
480.000000	0.055011
479.000000	0.054860
478.000000	0.055565
477.000000	0.056028
476.000000	0.056997
475.000000	0.057514
474.000000	0.058300
473.000000	0.058664
472.000000	0.059015
471.000000	0.059885
470.000000	0.060799
469.000000	0.061581
468.000000	0.062460
467.000000	0.063447
466.000000	0.063850
465.000000	0.064468
464.000000	0.064973
463.000000	0.064916
462.000000	0.065543
461.000000	0.066381
460.000000	0.066794
459.000000	0.066954
458.000000	0.067067
457.000000	0.067232
456.000000	0.067726
455.000000	0.068585
454.000000	0.070487
453.000000	0.071217
452.000000	0.072372
451.000000	0.074130
450.000000	0.075865
449.000000	0.077397
448.000000	0.079777
447.000000	0.082437
446.000000	0.084406
445.000000	0.086546
444.000000	0.088056
443.000000	0.090468
442.000000	0.092284
441.000000	0.093532
440.000000	0.094010
439.000000	0.094166
438.000000	0.094881
437.000000	0.094558
436.000000	0.093625
435.000000	0.092986
434.000000	0.092984
433.000000	0.092224
432.000000	0.091050
431.000000	0.090361
430.000000	0.089457
429.000000	0.088351
428.000000	0.087974
427.000000	0.087027
426.000000	0.086085
425.000000	0.085326
424.000000	0.084609
423.000000	0.084709
422.000000	0.084891
421.000000	0.084196
420.000000	0.082862
419.000000	0.082506
418.000000	0.082786
417.000000	0.081979
416.000000	0.081032
415.000000	0.081413
414.000000	0.080705
413.000000	0.080144
412.000000	0.079587
411.000000	0.078299
410.000000	0.077669
409.000000	0.076952
408.000000	0.076758
407.000000	0.076624
406.000000	0.075709
405.000000	0.075153
404.000000	0.074895
403.000000	0.074457
402.000000	0.074195
401.000000	0.074168
400.000000	0.074052
399.000000	0.074615
398.000000	0.075284
397.000000	0.075784
396.000000	0.075438
395.000000	0.075464
394.000000	0.076450
393.000000	0.077239
392.000000	0.076992
391.000000	0.076539
390.000000	0.076499
389.000000	0.075934
388.000000	0.075673
387.000000	0.075082
386.000000	0.073999
385.000000	0.073290
384.000000	0.072043
383.000000	0.070442
382.000000	0.068618
381.000000	0.066642
380.000000	0.063804
379.000000	0.061822
378.000000	0.057027
377.000000	0.054367
376.000000	0.052812
375.000000	0.050949
374.000000	0.047317
373.000000	0.043816
372.000000	0.044235
371.000000	0.040519
370.000000	0.038288
369.000000	0.036056
368.000000	0.033810
367.000000	0.032104
366.000000	0.030730
365.000000	0.029958
364.000000	0.027537
363.000000	0.026687
362.000000	0.023821
361.000000	0.022456
360.000000	0.022907
359.000000	0.023100
358.000000	0.022721
357.000000	0.021215
356.000000	0.019871
355.000000	0.018727
354.000000	0.017546
353.000000	0.017838
352.000000	0.018307
351.000000	0.016767
350.000000	0.015212
349.000000	0.016233
348.000000	0.015674
347.000000	0.016637
346.000000	0.015189
345.000000	0.014830
344.000000	0.016477
343.000000	0.017298
342.000000	0.016494
341.000000	0.014409
340.000000	0.017466
339.000000	0.016071
338.000000	0.013473
337.000000	0.016446
336.000000	0.018598
335.000000	0.019255
334.000000	0.016269
333.000000	0.016455
332.000000	0.015206
331.000000	0.012635
330.000000	0.013395
329.000000	0.012026
328.000000	0.009808
327.000000	0.013909
326.000000	0.015107
325.000000	0.011656
324.000000	0.013091
323.000000	0.013149
322.000000	0.014517
321.000000	0.017030
320.000000	0.016968
319.000000	0.012804
318.000000	0.014447
317.000000	0.014457
316.000000	0.016679
315.000000	0.018635
314.000000	0.018692
313.000000	0.020542
312.000000	0.020727
311.000000	0.023037
310.000000	0.023678
309.000000	0.025209
308.000000	0.033010
307.000000	0.032779
306.000000	0.036488
305.000000	0.037532
304.000000	0.042707
303.000000	0.042593
302.000000	0.052264
301.000000	0.054485
300.000000	0.058589
