PE UV       SUBTECH     SPECTRUM    ASCII       PEDS        4.00        
   -1
PETIT_29.Sample.Raw.asc
20/12/15
09:36:41.00
20/12/15
09:36:41.00
CNRS
RCC2919_A_D2
300.000000
1
Lambda 850
850L1011221
PerkinElmer UV WinLab 6.0.3.0730 / 1.61.00 Lambda 800

0
0
2
0
0
UV/VIS
1
1
1
RBeamAtt,SBeamAtt,150mm sphere / downward view
0
0
0
0
Fix
 
0
0.2
0
0
0
 
 
 
0
 
0
319.2
0
Front
50
 
S:100 R:100
 
0
0
0
 
0
 
 
 
0
 
 
0
0
0
0
0
 
 
 
 
0
0


#HDR
-1
-1
#GR
nm
A
1.0
0.0
800.000000
-1.000000
501
8
0.214556
-0.014250
#DATA
800.000000	-0.012845
799.000000	-0.012603
798.000000	-0.013412
797.000000	-0.013140
796.000000	-0.013833
795.000000	-0.014112
794.000000	-0.013414
793.000000	-0.014250
792.000000	-0.012572
791.000000	-0.011909
790.000000	-0.012779
789.000000	-0.013212
788.000000	-0.013057
787.000000	-0.013270
786.000000	-0.013189
785.000000	-0.012982
784.000000	-0.011942
783.000000	-0.013207
782.000000	-0.011939
781.000000	-0.012254
780.000000	-0.012992
779.000000	-0.014076
778.000000	-0.013138
777.000000	-0.013203
776.000000	-0.012559
775.000000	-0.011766
774.000000	-0.012292
773.000000	-0.013761
772.000000	-0.012408
771.000000	-0.012787
770.000000	-0.012590
769.000000	-0.011747
768.000000	-0.012332
767.000000	-0.013150
766.000000	-0.012224
765.000000	-0.012852
764.000000	-0.012614
763.000000	-0.012449
762.000000	-0.013148
761.000000	-0.013278
760.000000	-0.013645
759.000000	-0.012653
758.000000	-0.013422
757.000000	-0.011732
756.000000	-0.012553
755.000000	-0.012110
754.000000	-0.013290
753.000000	-0.014183
752.000000	-0.012852
751.000000	-0.013669
750.000000	-0.012448
749.000000	-0.011866
748.000000	-0.011863
747.000000	-0.012288
746.000000	-0.013179
745.000000	-0.013241
744.000000	-0.013940
743.000000	-0.012845
742.000000	-0.012575
741.000000	-0.012653
740.000000	-0.012144
739.000000	-0.012920
738.000000	-0.012005
737.000000	-0.013587
736.000000	-0.012669
735.000000	-0.012385
734.000000	-0.012718
733.000000	-0.012767
732.000000	-0.013442
731.000000	-0.012857
730.000000	-0.013220
729.000000	-0.013243
728.000000	-0.012871
727.000000	-0.012651
726.000000	-0.012424
725.000000	-0.012326
724.000000	-0.012899
723.000000	-0.013282
722.000000	-0.012597
721.000000	-0.012756
720.000000	-0.013281
719.000000	-0.012195
718.000000	-0.012576
717.000000	-0.012746
716.000000	-0.012195
715.000000	-0.012361
714.000000	-0.012058
713.000000	-0.011992
712.000000	-0.011309
711.000000	-0.010620
710.000000	-0.010706
709.000000	-0.009883
708.000000	-0.009100
707.000000	-0.008719
706.000000	-0.007830
705.000000	-0.007517
704.000000	-0.005919
703.000000	-0.004349
702.000000	-0.002552
701.000000	-0.000547
700.000000	0.001316
699.000000	0.003678
698.000000	0.006787
697.000000	0.009694
696.000000	0.012768
695.000000	0.016813
694.000000	0.021411
693.000000	0.026234
692.000000	0.031509
691.000000	0.037160
690.000000	0.042710
689.000000	0.048764
688.000000	0.054923
687.000000	0.060551
686.000000	0.066219
685.000000	0.072051
684.000000	0.077123
683.000000	0.081152
682.000000	0.084898
681.000000	0.087227
680.000000	0.088483
679.000000	0.089661
678.000000	0.090320
677.000000	0.089776
676.000000	0.088765
675.000000	0.087601
674.000000	0.085774
673.000000	0.083520
672.000000	0.081259
671.000000	0.078365
670.000000	0.075547
669.000000	0.072068
668.000000	0.067705
667.000000	0.063150
666.000000	0.058786
665.000000	0.054120
664.000000	0.049059
663.000000	0.044655
662.000000	0.040457
661.000000	0.036499
660.000000	0.033188
659.000000	0.030120
658.000000	0.027400
657.000000	0.024639
656.000000	0.022208
655.000000	0.020395
654.000000	0.018791
653.000000	0.017915
652.000000	0.017528
651.000000	0.016537
650.000000	0.015854
649.000000	0.016146
648.000000	0.016086
647.000000	0.016083
646.000000	0.016488
645.000000	0.016696
644.000000	0.017146
643.000000	0.017906
642.000000	0.018364
641.000000	0.018890
640.000000	0.019888
639.000000	0.020230
638.000000	0.020495
637.000000	0.021707
636.000000	0.021943
635.000000	0.021762
634.000000	0.022226
633.000000	0.022627
632.000000	0.022679
631.000000	0.022579
630.000000	0.022907
629.000000	0.022436
628.000000	0.022177
627.000000	0.022141
626.000000	0.021751
625.000000	0.021746
624.000000	0.021014
623.000000	0.020622
622.000000	0.020211
621.000000	0.019828
620.000000	0.019377
619.000000	0.018713
618.000000	0.018244
617.000000	0.017699
616.000000	0.017108
615.000000	0.016269
614.000000	0.015442
613.000000	0.015103
612.000000	0.014883
611.000000	0.014050
610.000000	0.013447
609.000000	0.012206
608.000000	0.011948
607.000000	0.011197
606.000000	0.011106
605.000000	0.011246
604.000000	0.010358
603.000000	0.010074
602.000000	0.009363
601.000000	0.009860
600.000000	0.009657
599.000000	0.009998
598.000000	0.009120
597.000000	0.009450
596.000000	0.009660
595.000000	0.009926
594.000000	0.009915
593.000000	0.009834
592.000000	0.009452
591.000000	0.010026
590.000000	0.010129
589.000000	0.009739
588.000000	0.009966
587.000000	0.010046
586.000000	0.009810
585.000000	0.010472
584.000000	0.011026
583.000000	0.010632
582.000000	0.010665
581.000000	0.010977
580.000000	0.011990
579.000000	0.012468
578.000000	0.012962
577.000000	0.014390
576.000000	0.015361
575.000000	0.016660
574.000000	0.018085
573.000000	0.019615
572.000000	0.020744
571.000000	0.021515
570.000000	0.023294
569.000000	0.024714
568.000000	0.026715
567.000000	0.027832
566.000000	0.029806
565.000000	0.031199
564.000000	0.033292
563.000000	0.034999
562.000000	0.036909
561.000000	0.039281
560.000000	0.041311
559.000000	0.043426
558.000000	0.046136
557.000000	0.049147
556.000000	0.051141
555.000000	0.052453
554.000000	0.054508
553.000000	0.056629
552.000000	0.057294
551.000000	0.059709
550.000000	0.059451
549.000000	0.060911
548.000000	0.061549
547.000000	0.061575
546.000000	0.062122
545.000000	0.062017
544.000000	0.061820
543.000000	0.061524
542.000000	0.061681
541.000000	0.061268
540.000000	0.060950
539.000000	0.060387
538.000000	0.060262
537.000000	0.059872
536.000000	0.059318
535.000000	0.058820
534.000000	0.059370
533.000000	0.058320
532.000000	0.058340
531.000000	0.057936
530.000000	0.057400
529.000000	0.057717
528.000000	0.057693
527.000000	0.058027
526.000000	0.058588
525.000000	0.058582
524.000000	0.059316
523.000000	0.059176
522.000000	0.060607
521.000000	0.061576
520.000000	0.062819
519.000000	0.064098
518.000000	0.066085
517.000000	0.067544
516.000000	0.070012
515.000000	0.071946
514.000000	0.074324
513.000000	0.077110
512.000000	0.079535
511.000000	0.082033
510.000000	0.084620
509.000000	0.087747
508.000000	0.091555
507.000000	0.094976
506.000000	0.098798
505.000000	0.102050
504.000000	0.105059
503.000000	0.108290
502.000000	0.112054
501.000000	0.115073
500.000000	0.117918
499.000000	0.120155
498.000000	0.122378
497.000000	0.124584
496.000000	0.126107
495.000000	0.126229
494.000000	0.127225
493.000000	0.127988
492.000000	0.128442
491.000000	0.128710
490.000000	0.127974
489.000000	0.127948
488.000000	0.126989
487.000000	0.126483
486.000000	0.125734
485.000000	0.124713
484.000000	0.123921
483.000000	0.123632
482.000000	0.123118
481.000000	0.121921
480.000000	0.121066
479.000000	0.120415
478.000000	0.120841
477.000000	0.121021
476.000000	0.122080
475.000000	0.122748
474.000000	0.123267
473.000000	0.124817
472.000000	0.125290
471.000000	0.125870
470.000000	0.127091
469.000000	0.128470
468.000000	0.129299
467.000000	0.130472
466.000000	0.131542
465.000000	0.131934
464.000000	0.132742
463.000000	0.133753
462.000000	0.133874
461.000000	0.134974
460.000000	0.135762
459.000000	0.136380
458.000000	0.137211
457.000000	0.138421
456.000000	0.139603
455.000000	0.140702
454.000000	0.142789
453.000000	0.145175
452.000000	0.147647
451.000000	0.150639
450.000000	0.154508
449.000000	0.157829
448.000000	0.161990
447.000000	0.166436
446.000000	0.170205
445.000000	0.173942
444.000000	0.177206
443.000000	0.180271
442.000000	0.182554
441.000000	0.184166
440.000000	0.185331
439.000000	0.185751
438.000000	0.186089
437.000000	0.186325
436.000000	0.185592
435.000000	0.184392
434.000000	0.183928
433.000000	0.182709
432.000000	0.180579
431.000000	0.179149
430.000000	0.177353
429.000000	0.175929
428.000000	0.174956
427.000000	0.173953
426.000000	0.173354
425.000000	0.172722
424.000000	0.171974
423.000000	0.171782
422.000000	0.172166
421.000000	0.171804
420.000000	0.170776
419.000000	0.170671
418.000000	0.171073
417.000000	0.170089
416.000000	0.168784
415.000000	0.168435
414.000000	0.166711
413.000000	0.164928
412.000000	0.163434
411.000000	0.160970
410.000000	0.159745
409.000000	0.158056
408.000000	0.155959
407.000000	0.154166
406.000000	0.151749
405.000000	0.150109
404.000000	0.149184
403.000000	0.147106
402.000000	0.144793
401.000000	0.143833
400.000000	0.142906
399.000000	0.142769
398.000000	0.142127
397.000000	0.142066
396.000000	0.141085
395.000000	0.139976
394.000000	0.140419
393.000000	0.140314
392.000000	0.139527
391.000000	0.139162
390.000000	0.139689
389.000000	0.139424
388.000000	0.139725
387.000000	0.139485
386.000000	0.139584
385.000000	0.139219
384.000000	0.138462
383.000000	0.139205
382.000000	0.138909
381.000000	0.138928
380.000000	0.137838
379.000000	0.138004
378.000000	0.135919
377.000000	0.132675
376.000000	0.131595
375.000000	0.132556
374.000000	0.131928
373.000000	0.132750
372.000000	0.132654
371.000000	0.131815
370.000000	0.130894
369.000000	0.132227
368.000000	0.132446
367.000000	0.134301
366.000000	0.133993
365.000000	0.134117
364.000000	0.134269
363.000000	0.135061
362.000000	0.134586
361.000000	0.134930
360.000000	0.135523
359.000000	0.135735
358.000000	0.136978
357.000000	0.137857
356.000000	0.139439
355.000000	0.139011
354.000000	0.139067
353.000000	0.139505
352.000000	0.140556
351.000000	0.142776
350.000000	0.140017
349.000000	0.142445
348.000000	0.144097
347.000000	0.149478
346.000000	0.147976
345.000000	0.148527
344.000000	0.151549
343.000000	0.150493
342.000000	0.154448
341.000000	0.152448
340.000000	0.157437
339.000000	0.156532
338.000000	0.157270
337.000000	0.157197
336.000000	0.156496
335.000000	0.159052
334.000000	0.157711
333.000000	0.159466
332.000000	0.158855
331.000000	0.162541
330.000000	0.161721
329.000000	0.162993
328.000000	0.159439
327.000000	0.163219
326.000000	0.166503
325.000000	0.166382
324.000000	0.165058
323.000000	0.166128
322.000000	0.172271
321.000000	0.168803
320.000000	0.170464
319.000000	0.167395
318.000000	0.167184
317.000000	0.168603
316.000000	0.172155
315.000000	0.170974
314.000000	0.173092
313.000000	0.177015
312.000000	0.176751
311.000000	0.179736
310.000000	0.183198
309.000000	0.185052
308.000000	0.188175
307.000000	0.188216
306.000000	0.192605
305.000000	0.196048
304.000000	0.198923
303.000000	0.201856
302.000000	0.207847
301.000000	0.210015
300.000000	0.214556
