PE UV       SUBTECH     SPECTRUM    ASCII       PEDS        4.00        
   -1
PETIT_47.Sample.Raw.asc
20/12/15
11:10:24.00
20/12/15
11:10:24.00
CNRS
RCC2374_B_DM
300.000000
1
Lambda 850
850L1011221
PerkinElmer UV WinLab 6.0.3.0730 / 1.61.00 Lambda 800

0
0
2
0
0
UV/VIS
1
1
1
RBeamAtt,SBeamAtt,150mm sphere / downward view
0
0
0
0
Fix
 
0
0.2
0
0
0
 
 
 
0
 
0
319.2
0
Front
50
 
S:100 R:100
 
0
0
0
 
0
 
 
 
0
 
 
0
0
0
0
0
 
 
 
 
0
0


#HDR
-1
-1
#GR
nm
A
1.0
0.0
800.000000
-1.000000
501
8
0.146243
-0.015330
#DATA
800.000000	-0.013990
799.000000	-0.013232
798.000000	-0.014110
797.000000	-0.013342
796.000000	-0.014984
795.000000	-0.014100
794.000000	-0.013889
793.000000	-0.015032
792.000000	-0.013911
791.000000	-0.013247
790.000000	-0.015004
789.000000	-0.014187
788.000000	-0.012978
787.000000	-0.013542
786.000000	-0.014376
785.000000	-0.014713
784.000000	-0.014316
783.000000	-0.014324
782.000000	-0.013128
781.000000	-0.014651
780.000000	-0.014320
779.000000	-0.015068
778.000000	-0.013498
777.000000	-0.013698
776.000000	-0.013386
775.000000	-0.013313
774.000000	-0.013308
773.000000	-0.014313
772.000000	-0.013383
771.000000	-0.013399
770.000000	-0.014319
769.000000	-0.013606
768.000000	-0.013441
767.000000	-0.012806
766.000000	-0.013853
765.000000	-0.013713
764.000000	-0.014277
763.000000	-0.013588
762.000000	-0.014260
761.000000	-0.014249
760.000000	-0.013983
759.000000	-0.013958
758.000000	-0.014396
757.000000	-0.013514
756.000000	-0.013988
755.000000	-0.013331
754.000000	-0.013587
753.000000	-0.014298
752.000000	-0.014327
751.000000	-0.015232
750.000000	-0.013829
749.000000	-0.012557
748.000000	-0.012429
747.000000	-0.012755
746.000000	-0.013471
745.000000	-0.013703
744.000000	-0.014539
743.000000	-0.014388
742.000000	-0.014183
741.000000	-0.013902
740.000000	-0.013407
739.000000	-0.014759
738.000000	-0.014234
737.000000	-0.014723
736.000000	-0.013602
735.000000	-0.014288
734.000000	-0.014402
733.000000	-0.014168
732.000000	-0.013737
731.000000	-0.014049
730.000000	-0.014377
729.000000	-0.014390
728.000000	-0.013857
727.000000	-0.014195
726.000000	-0.014249
725.000000	-0.013998
724.000000	-0.014576
723.000000	-0.015112
722.000000	-0.014505
721.000000	-0.014921
720.000000	-0.015330
719.000000	-0.014803
718.000000	-0.014444
717.000000	-0.014565
716.000000	-0.014313
715.000000	-0.013926
714.000000	-0.013728
713.000000	-0.013484
712.000000	-0.012919
711.000000	-0.012514
710.000000	-0.012678
709.000000	-0.012679
708.000000	-0.011724
707.000000	-0.011222
706.000000	-0.010350
705.000000	-0.009859
704.000000	-0.008775
703.000000	-0.007939
702.000000	-0.006593
701.000000	-0.005391
700.000000	-0.003813
699.000000	-0.001886
698.000000	0.000408
697.000000	0.002910
696.000000	0.005645
695.000000	0.009007
694.000000	0.012789
693.000000	0.016628
692.000000	0.020773
691.000000	0.025620
690.000000	0.030608
689.000000	0.035497
688.000000	0.040775
687.000000	0.045862
686.000000	0.050499
685.000000	0.055628
684.000000	0.060115
683.000000	0.063254
682.000000	0.066442
681.000000	0.068899
680.000000	0.070046
679.000000	0.070330
678.000000	0.070560
677.000000	0.070171
676.000000	0.069336
675.000000	0.068293
674.000000	0.066541
673.000000	0.064484
672.000000	0.062564
671.000000	0.060253
670.000000	0.057840
669.000000	0.054820
668.000000	0.051430
667.000000	0.048090
666.000000	0.044442
665.000000	0.040355
664.000000	0.036681
663.000000	0.033140
662.000000	0.029661
661.000000	0.026304
660.000000	0.022984
659.000000	0.020568
658.000000	0.018538
657.000000	0.016062
656.000000	0.013886
655.000000	0.012342
654.000000	0.011286
653.000000	0.010494
652.000000	0.009745
651.000000	0.008776
650.000000	0.008673
649.000000	0.008869
648.000000	0.008739
647.000000	0.008799
646.000000	0.008939
645.000000	0.008561
644.000000	0.008838
643.000000	0.009678
642.000000	0.010098
641.000000	0.010388
640.000000	0.011144
639.000000	0.011252
638.000000	0.011031
637.000000	0.011924
636.000000	0.011917
635.000000	0.012186
634.000000	0.012358
633.000000	0.012428
632.000000	0.012804
631.000000	0.013140
630.000000	0.013044
629.000000	0.012754
628.000000	0.012700
627.000000	0.012608
626.000000	0.012472
625.000000	0.012504
624.000000	0.011913
623.000000	0.011458
622.000000	0.011452
621.000000	0.011239
620.000000	0.011216
619.000000	0.010633
618.000000	0.009871
617.000000	0.009563
616.000000	0.009193
615.000000	0.008333
614.000000	0.008023
613.000000	0.007866
612.000000	0.007390
611.000000	0.006644
610.000000	0.005975
609.000000	0.005048
608.000000	0.005205
607.000000	0.003889
606.000000	0.004185
605.000000	0.004282
604.000000	0.003402
603.000000	0.003323
602.000000	0.003022
601.000000	0.003061
600.000000	0.002762
599.000000	0.002644
598.000000	0.002065
597.000000	0.002240
596.000000	0.002338
595.000000	0.002685
594.000000	0.002176
593.000000	0.002124
592.000000	0.002729
591.000000	0.002433
590.000000	0.002535
589.000000	0.002129
588.000000	0.002130
587.000000	0.002704
586.000000	0.002248
585.000000	0.002569
584.000000	0.002834
583.000000	0.002219
582.000000	0.002438
581.000000	0.002704
580.000000	0.003233
579.000000	0.003564
578.000000	0.003815
577.000000	0.004798
576.000000	0.005528
575.000000	0.006346
574.000000	0.007604
573.000000	0.008964
572.000000	0.009986
571.000000	0.010732
570.000000	0.012053
569.000000	0.013500
568.000000	0.015452
567.000000	0.016481
566.000000	0.018232
565.000000	0.019785
564.000000	0.021750
563.000000	0.023735
562.000000	0.025106
561.000000	0.028132
560.000000	0.029518
559.000000	0.031566
558.000000	0.033591
557.000000	0.035869
556.000000	0.037985
555.000000	0.039530
554.000000	0.041228
553.000000	0.042869
552.000000	0.043435
551.000000	0.045265
550.000000	0.045608
549.000000	0.046887
548.000000	0.047629
547.000000	0.047863
546.000000	0.048366
545.000000	0.048228
544.000000	0.048545
543.000000	0.048212
542.000000	0.048075
541.000000	0.048079
540.000000	0.047739
539.000000	0.047371
538.000000	0.047268
537.000000	0.046993
536.000000	0.046568
535.000000	0.046515
534.000000	0.045833
533.000000	0.045590
532.000000	0.045339
531.000000	0.045021
530.000000	0.044649
529.000000	0.044540
528.000000	0.044368
527.000000	0.044937
526.000000	0.045411
525.000000	0.045395
524.000000	0.045893
523.000000	0.045924
522.000000	0.046919
521.000000	0.047599
520.000000	0.048774
519.000000	0.049445
518.000000	0.050637
517.000000	0.052124
516.000000	0.053561
515.000000	0.054919
514.000000	0.056935
513.000000	0.059572
512.000000	0.061604
511.000000	0.062865
510.000000	0.064922
509.000000	0.067762
508.000000	0.070597
507.000000	0.073205
506.000000	0.076210
505.000000	0.078499
504.000000	0.080354
503.000000	0.082961
502.000000	0.085830
501.000000	0.088533
500.000000	0.090185
499.000000	0.091385
498.000000	0.092886
497.000000	0.093739
496.000000	0.095121
495.000000	0.095059
494.000000	0.095205
493.000000	0.095693
492.000000	0.095669
491.000000	0.095005
490.000000	0.094336
489.000000	0.093820
488.000000	0.092811
487.000000	0.091999
486.000000	0.091547
485.000000	0.090643
484.000000	0.089931
483.000000	0.089307
482.000000	0.088768
481.000000	0.088249
480.000000	0.088132
479.000000	0.087772
478.000000	0.088221
477.000000	0.088609
476.000000	0.089353
475.000000	0.089858
474.000000	0.090855
473.000000	0.091380
472.000000	0.091337
471.000000	0.091975
470.000000	0.093302
469.000000	0.094268
468.000000	0.095460
467.000000	0.096202
466.000000	0.096449
465.000000	0.096942
464.000000	0.097530
463.000000	0.097720
462.000000	0.097845
461.000000	0.098477
460.000000	0.099129
459.000000	0.099571
458.000000	0.100315
457.000000	0.100986
456.000000	0.101924
455.000000	0.103238
454.000000	0.105853
453.000000	0.107752
452.000000	0.110384
451.000000	0.112943
450.000000	0.116089
449.000000	0.119309
448.000000	0.123415
447.000000	0.127619
446.000000	0.131009
445.000000	0.134749
444.000000	0.137609
443.000000	0.140378
442.000000	0.142584
441.000000	0.144394
440.000000	0.145633
439.000000	0.145882
438.000000	0.146243
437.000000	0.145817
436.000000	0.145024
435.000000	0.144183
434.000000	0.143212
433.000000	0.142394
432.000000	0.140698
431.000000	0.139059
430.000000	0.137538
429.000000	0.135835
428.000000	0.134932
427.000000	0.133767
426.000000	0.132350
425.000000	0.131671
424.000000	0.130949
423.000000	0.130659
422.000000	0.130758
421.000000	0.130496
420.000000	0.129871
419.000000	0.129545
418.000000	0.128995
417.000000	0.127723
416.000000	0.127189
415.000000	0.127008
414.000000	0.125386
413.000000	0.124199
412.000000	0.123070
411.000000	0.121578
410.000000	0.120699
409.000000	0.119408
408.000000	0.118167
407.000000	0.116899
406.000000	0.114777
405.000000	0.114328
404.000000	0.113738
403.000000	0.111943
402.000000	0.111314
401.000000	0.110937
400.000000	0.110922
399.000000	0.111655
398.000000	0.111743
397.000000	0.111973
396.000000	0.111283
395.000000	0.111205
394.000000	0.111785
393.000000	0.112862
392.000000	0.113723
391.000000	0.114313
390.000000	0.114922
389.000000	0.114615
388.000000	0.115839
387.000000	0.116064
386.000000	0.115347
385.000000	0.115121
384.000000	0.114663
383.000000	0.114387
382.000000	0.114531
381.000000	0.112908
380.000000	0.109981
379.000000	0.108268
378.000000	0.105632
377.000000	0.100189
376.000000	0.095619
375.000000	0.095900
374.000000	0.092251
373.000000	0.088292
372.000000	0.086058
371.000000	0.083335
370.000000	0.080548
369.000000	0.077118
368.000000	0.075472
367.000000	0.072044
366.000000	0.068274
365.000000	0.066746
364.000000	0.064613
363.000000	0.063192
362.000000	0.060469
361.000000	0.059132
360.000000	0.056910
359.000000	0.054026
358.000000	0.054725
357.000000	0.053121
356.000000	0.049415
355.000000	0.049776
354.000000	0.049074
353.000000	0.047144
352.000000	0.046810
351.000000	0.045889
350.000000	0.045140
349.000000	0.044849
348.000000	0.044906
347.000000	0.045295
346.000000	0.046214
345.000000	0.046301
344.000000	0.046611
343.000000	0.048102
342.000000	0.048907
341.000000	0.046966
340.000000	0.048569
339.000000	0.047641
338.000000	0.044591
337.000000	0.043804
336.000000	0.046737
335.000000	0.047493
334.000000	0.044213
333.000000	0.042952
332.000000	0.040393
331.000000	0.042071
330.000000	0.041235
329.000000	0.039582
328.000000	0.039670
327.000000	0.039486
326.000000	0.040802
325.000000	0.041413
324.000000	0.038402
323.000000	0.039113
322.000000	0.042072
321.000000	0.040597
320.000000	0.041177
319.000000	0.036189
318.000000	0.039894
317.000000	0.040196
316.000000	0.042528
315.000000	0.042126
314.000000	0.041585
313.000000	0.044485
312.000000	0.046279
311.000000	0.047405
310.000000	0.048300
309.000000	0.050298
308.000000	0.054880
307.000000	0.056416
306.000000	0.060884
305.000000	0.064407
304.000000	0.066634
303.000000	0.067297
302.000000	0.074873
301.000000	0.079050
300.000000	0.081784
