PE UV       SUBTECH     SPECTRUM    ASCII       PEDS        4.00        
   -1
PETIT_41.Sample.Raw.asc
20/12/15
10:40:37.00
20/12/15
10:40:37.00
CNRS
RCC9511_B_D2
300.000000
1
Lambda 850
850L1011221
PerkinElmer UV WinLab 6.0.3.0730 / 1.61.00 Lambda 800

0
0
2
0
0
UV/VIS
1
1
1
RBeamAtt,SBeamAtt,150mm sphere / downward view
0
0
0
0
Fix
 
0
0.2
0
0
0
 
 
 
0
 
0
319.2
0
Front
50
 
S:100 R:100
 
0
0
0
 
0
 
 
 
0
 
 
0
0
0
0
0
 
 
 
 
0
0


#HDR
-1
-1
#GR
nm
A
1.0
0.0
800.000000
-1.000000
501
8
0.235199
-0.013873
#DATA
800.000000	-0.011026
799.000000	-0.011337
798.000000	-0.012991
797.000000	-0.011549
796.000000	-0.012261
795.000000	-0.013311
794.000000	-0.011516
793.000000	-0.012885
792.000000	-0.012468
791.000000	-0.011405
790.000000	-0.012475
789.000000	-0.012309
788.000000	-0.012227
787.000000	-0.011001
786.000000	-0.013012
785.000000	-0.011958
784.000000	-0.011800
783.000000	-0.012320
782.000000	-0.011385
781.000000	-0.012395
780.000000	-0.012257
779.000000	-0.012149
778.000000	-0.012305
777.000000	-0.012558
776.000000	-0.011143
775.000000	-0.011960
774.000000	-0.011719
773.000000	-0.013206
772.000000	-0.012468
771.000000	-0.012423
770.000000	-0.012229
769.000000	-0.012054
768.000000	-0.012580
767.000000	-0.012757
766.000000	-0.012410
765.000000	-0.012688
764.000000	-0.011835
763.000000	-0.012629
762.000000	-0.012929
761.000000	-0.012607
760.000000	-0.013166
759.000000	-0.012500
758.000000	-0.012783
757.000000	-0.013851
756.000000	-0.013410
755.000000	-0.011926
754.000000	-0.012558
753.000000	-0.013052
752.000000	-0.012995
751.000000	-0.013400
750.000000	-0.012326
749.000000	-0.011475
748.000000	-0.011361
747.000000	-0.012336
746.000000	-0.012314
745.000000	-0.013547
744.000000	-0.013551
743.000000	-0.012357
742.000000	-0.012297
741.000000	-0.012946
740.000000	-0.011779
739.000000	-0.013873
738.000000	-0.013214
737.000000	-0.012683
736.000000	-0.012459
735.000000	-0.012889
734.000000	-0.012654
733.000000	-0.013382
732.000000	-0.013072
731.000000	-0.013352
730.000000	-0.013642
729.000000	-0.013177
728.000000	-0.013081
727.000000	-0.013120
726.000000	-0.012623
725.000000	-0.013182
724.000000	-0.013345
723.000000	-0.013522
722.000000	-0.013270
721.000000	-0.013666
720.000000	-0.013612
719.000000	-0.012953
718.000000	-0.013379
717.000000	-0.013152
716.000000	-0.013019
715.000000	-0.013279
714.000000	-0.012792
713.000000	-0.012855
712.000000	-0.012053
711.000000	-0.012186
710.000000	-0.012314
709.000000	-0.012005
708.000000	-0.011651
707.000000	-0.010788
706.000000	-0.010488
705.000000	-0.010806
704.000000	-0.009882
703.000000	-0.008916
702.000000	-0.007963
701.000000	-0.007067
700.000000	-0.005627
699.000000	-0.003974
698.000000	-0.002213
697.000000	-0.000596
696.000000	0.001908
695.000000	0.004914
694.000000	0.007694
693.000000	0.011024
692.000000	0.015931
691.000000	0.020790
690.000000	0.025874
689.000000	0.031112
688.000000	0.036374
687.000000	0.041613
686.000000	0.046259
685.000000	0.051676
684.000000	0.056938
683.000000	0.060834
682.000000	0.064909
681.000000	0.068771
680.000000	0.071081
679.000000	0.073406
678.000000	0.075833
677.000000	0.077423
676.000000	0.078878
675.000000	0.079879
674.000000	0.080409
673.000000	0.080231
672.000000	0.079248
671.000000	0.077802
670.000000	0.075868
669.000000	0.073325
668.000000	0.069948
667.000000	0.065332
666.000000	0.061161
665.000000	0.056323
664.000000	0.050960
663.000000	0.046451
662.000000	0.041883
661.000000	0.037395
660.000000	0.033412
659.000000	0.029850
658.000000	0.026778
657.000000	0.023349
656.000000	0.020608
655.000000	0.019041
654.000000	0.017308
653.000000	0.015405
652.000000	0.014168
651.000000	0.012850
650.000000	0.011945
649.000000	0.011504
648.000000	0.011049
647.000000	0.010402
646.000000	0.010023
645.000000	0.009606
644.000000	0.009574
643.000000	0.009968
642.000000	0.009534
641.000000	0.008946
640.000000	0.009633
639.000000	0.009869
638.000000	0.010324
637.000000	0.010666
636.000000	0.010766
635.000000	0.011026
634.000000	0.011040
633.000000	0.011378
632.000000	0.011624
631.000000	0.011673
630.000000	0.011909
629.000000	0.011439
628.000000	0.011159
627.000000	0.011141
626.000000	0.010706
625.000000	0.010666
624.000000	0.010462
623.000000	0.010156
622.000000	0.009711
621.000000	0.009702
620.000000	0.009377
619.000000	0.008594
618.000000	0.008059
617.000000	0.007868
616.000000	0.007579
615.000000	0.006987
614.000000	0.006310
613.000000	0.006259
612.000000	0.006092
611.000000	0.005691
610.000000	0.005256
609.000000	0.004361
608.000000	0.004208
607.000000	0.003486
606.000000	0.003582
605.000000	0.003495
604.000000	0.002977
603.000000	0.002850
602.000000	0.002404
601.000000	0.002966
600.000000	0.002313
599.000000	0.002277
598.000000	0.002070
597.000000	0.001443
596.000000	0.001316
595.000000	0.001515
594.000000	0.001554
593.000000	0.001397
592.000000	0.001513
591.000000	0.001547
590.000000	0.001353
589.000000	0.000655
588.000000	0.001089
587.000000	0.001044
586.000000	0.000499
585.000000	0.000868
584.000000	0.000848
583.000000	-0.000345
582.000000	-0.000180
581.000000	-0.000099
580.000000	-0.000141
579.000000	-0.000528
578.000000	-0.000896
577.000000	-0.000708
576.000000	-0.000961
575.000000	-0.001202
574.000000	-0.000794
573.000000	-0.001122
572.000000	-0.001185
571.000000	-0.001720
570.000000	-0.001415
569.000000	-0.001699
568.000000	-0.001832
567.000000	-0.001909
566.000000	-0.001477
565.000000	-0.000980
564.000000	-0.000862
563.000000	-0.001017
562.000000	-0.001077
561.000000	-0.000562
560.000000	-0.000231
559.000000	-0.000096
558.000000	0.000586
557.000000	0.001043
556.000000	0.000458
555.000000	0.000405
554.000000	0.000733
553.000000	0.002230
552.000000	0.001281
551.000000	0.002499
550.000000	0.002285
549.000000	0.002780
548.000000	0.003513
547.000000	0.003370
546.000000	0.004272
545.000000	0.004602
544.000000	0.004961
543.000000	0.005559
542.000000	0.005813
541.000000	0.006290
540.000000	0.006896
539.000000	0.007419
538.000000	0.008223
537.000000	0.008315
536.000000	0.009210
535.000000	0.010042
534.000000	0.011032
533.000000	0.011353
532.000000	0.012476
531.000000	0.012846
530.000000	0.014140
529.000000	0.015286
528.000000	0.017044
527.000000	0.018515
526.000000	0.020492
525.000000	0.021487
524.000000	0.023200
523.000000	0.025428
522.000000	0.027889
521.000000	0.029896
520.000000	0.032584
519.000000	0.035559
518.000000	0.037988
517.000000	0.041322
516.000000	0.045028
515.000000	0.048170
514.000000	0.052122
513.000000	0.056032
512.000000	0.059902
511.000000	0.064026
510.000000	0.067494
509.000000	0.071759
508.000000	0.076238
507.000000	0.081066
506.000000	0.084836
505.000000	0.088979
504.000000	0.092935
503.000000	0.096601
502.000000	0.100562
501.000000	0.104109
500.000000	0.107381
499.000000	0.109926
498.000000	0.112526
497.000000	0.115145
496.000000	0.117991
495.000000	0.119690
494.000000	0.121413
493.000000	0.123424
492.000000	0.125162
491.000000	0.126053
490.000000	0.127081
489.000000	0.128218
488.000000	0.129095
487.000000	0.129711
486.000000	0.130929
485.000000	0.131620
484.000000	0.132239
483.000000	0.132696
482.000000	0.133556
481.000000	0.133656
480.000000	0.134565
479.000000	0.135604
478.000000	0.137066
477.000000	0.138396
476.000000	0.140122
475.000000	0.141673
474.000000	0.143867
473.000000	0.145910
472.000000	0.147899
471.000000	0.149743
470.000000	0.152232
469.000000	0.154995
468.000000	0.157732
467.000000	0.160860
466.000000	0.163285
465.000000	0.166135
464.000000	0.169691
463.000000	0.173346
462.000000	0.176601
461.000000	0.180250
460.000000	0.184032
459.000000	0.187374
458.000000	0.190695
457.000000	0.193990
456.000000	0.197410
455.000000	0.200431
454.000000	0.203520
453.000000	0.205717
452.000000	0.208323
451.000000	0.210880
450.000000	0.212323
449.000000	0.213554
448.000000	0.216064
447.000000	0.218337
446.000000	0.218574
445.000000	0.218346
444.000000	0.218128
443.000000	0.218182
442.000000	0.217540
441.000000	0.216232
440.000000	0.215137
439.000000	0.214029
438.000000	0.212801
437.000000	0.211589
436.000000	0.210233
435.000000	0.208912
434.000000	0.208279
433.000000	0.207562
432.000000	0.206540
431.000000	0.206304
430.000000	0.206205
429.000000	0.205140
428.000000	0.204369
427.000000	0.203537
426.000000	0.202918
425.000000	0.202547
424.000000	0.201013
423.000000	0.199984
422.000000	0.199838
421.000000	0.198296
420.000000	0.196305
419.000000	0.194749
418.000000	0.193407
417.000000	0.192077
416.000000	0.190634
415.000000	0.190338
414.000000	0.188711
413.000000	0.186864
412.000000	0.185246
411.000000	0.183769
410.000000	0.183337
409.000000	0.182135
408.000000	0.181226
407.000000	0.180501
406.000000	0.179597
405.000000	0.179200
404.000000	0.179049
403.000000	0.179198
402.000000	0.178687
401.000000	0.178678
400.000000	0.179217
399.000000	0.179667
398.000000	0.180114
397.000000	0.180646
396.000000	0.180308
395.000000	0.179827
394.000000	0.180721
393.000000	0.181840
392.000000	0.181842
391.000000	0.181998
390.000000	0.182005
389.000000	0.181312
388.000000	0.181377
387.000000	0.180300
386.000000	0.178931
385.000000	0.177906
384.000000	0.176230
383.000000	0.175349
382.000000	0.173914
381.000000	0.171101
380.000000	0.168104
379.000000	0.166604
378.000000	0.161591
377.000000	0.158094
376.000000	0.155687
375.000000	0.156660
374.000000	0.153135
373.000000	0.150048
372.000000	0.149991
371.000000	0.149031
370.000000	0.147112
369.000000	0.148967
368.000000	0.147081
367.000000	0.146170
366.000000	0.147166
365.000000	0.145759
364.000000	0.146104
363.000000	0.146042
362.000000	0.147108
361.000000	0.148128
360.000000	0.147967
359.000000	0.148778
358.000000	0.149606
357.000000	0.148282
356.000000	0.150498
355.000000	0.152836
354.000000	0.152492
353.000000	0.151954
352.000000	0.153826
351.000000	0.153948
350.000000	0.154009
349.000000	0.155039
348.000000	0.156876
347.000000	0.157990
346.000000	0.158558
345.000000	0.161264
344.000000	0.162329
343.000000	0.163406
342.000000	0.163464
341.000000	0.163729
340.000000	0.168703
339.000000	0.165799
338.000000	0.166691
337.000000	0.169276
336.000000	0.168934
335.000000	0.169216
334.000000	0.170301
333.000000	0.173270
332.000000	0.172957
331.000000	0.171894
330.000000	0.172694
329.000000	0.171476
328.000000	0.171035
327.000000	0.177565
326.000000	0.180096
325.000000	0.177176
324.000000	0.179800
323.000000	0.182378
322.000000	0.181571
321.000000	0.186296
320.000000	0.186763
319.000000	0.185189
318.000000	0.184769
317.000000	0.185930
316.000000	0.189224
315.000000	0.191069
314.000000	0.192752
313.000000	0.196059
312.000000	0.196526
311.000000	0.198562
310.000000	0.201711
309.000000	0.203400
308.000000	0.209221
307.000000	0.208668
306.000000	0.212645
305.000000	0.217088
304.000000	0.219671
303.000000	0.222699
302.000000	0.228007
301.000000	0.230959
300.000000	0.235199
