PE UV       SUBTECH     SPECTRUM    ASCII       PEDS        4.00        
   -1
PETIT_36.Sample.Raw.asc
20/12/15
10:01:31.00
20/12/15
10:01:31.00
CNRS
RCC1717_9511_C
300.000000
1
Lambda 850
850L1011221
PerkinElmer UV WinLab 6.0.3.0730 / 1.61.00 Lambda 800

0
0
2
0
0
UV/VIS
1
1
1
RBeamAtt,SBeamAtt,150mm sphere / downward view
0
0
0
0
Fix
 
0
0.2
0
0
0
 
 
 
0
 
0
319.2
0
Front
50
 
S:100 R:100
 
0
0
0
 
0
 
 
 
0
 
 
0
0
0
0
0
 
 
 
 
0
0


#HDR
-1
-1
#GR
nm
A
1.0
0.0
800.000000
-1.000000
501
8
0.416829
-0.012427
#DATA
800.000000	-0.010599
799.000000	-0.010251
798.000000	-0.010863
797.000000	-0.010403
796.000000	-0.011927
795.000000	-0.012311
794.000000	-0.011461
793.000000	-0.012076
792.000000	-0.010948
791.000000	-0.010545
790.000000	-0.010864
789.000000	-0.010639
788.000000	-0.011496
787.000000	-0.011250
786.000000	-0.011851
785.000000	-0.011645
784.000000	-0.011643
783.000000	-0.010973
782.000000	-0.010177
781.000000	-0.010705
780.000000	-0.012427
779.000000	-0.010907
778.000000	-0.010946
777.000000	-0.010973
776.000000	-0.010173
775.000000	-0.010228
774.000000	-0.009573
773.000000	-0.010986
772.000000	-0.010062
771.000000	-0.010162
770.000000	-0.010992
769.000000	-0.010505
768.000000	-0.010468
767.000000	-0.010629
766.000000	-0.011057
765.000000	-0.010573
764.000000	-0.010668
763.000000	-0.011424
762.000000	-0.011719
761.000000	-0.011248
760.000000	-0.011442
759.000000	-0.010781
758.000000	-0.011136
757.000000	-0.011061
756.000000	-0.012418
755.000000	-0.010209
754.000000	-0.011440
753.000000	-0.011749
752.000000	-0.011091
751.000000	-0.011447
750.000000	-0.010418
749.000000	-0.009713
748.000000	-0.010264
747.000000	-0.009773
746.000000	-0.010853
745.000000	-0.011820
744.000000	-0.011579
743.000000	-0.011262
742.000000	-0.010875
741.000000	-0.010980
740.000000	-0.009706
739.000000	-0.010966
738.000000	-0.010466
737.000000	-0.011117
736.000000	-0.010726
735.000000	-0.010447
734.000000	-0.009779
733.000000	-0.010495
732.000000	-0.010948
731.000000	-0.010526
730.000000	-0.010043
729.000000	-0.009615
728.000000	-0.009356
727.000000	-0.008778
726.000000	-0.008113
725.000000	-0.008379
724.000000	-0.007928
723.000000	-0.007519
722.000000	-0.006794
721.000000	-0.005796
720.000000	-0.005163
719.000000	-0.004754
718.000000	-0.003716
717.000000	-0.002505
716.000000	-0.001091
715.000000	0.000222
714.000000	0.001885
713.000000	0.003697
712.000000	0.005725
711.000000	0.007581
710.000000	0.009358
709.000000	0.011029
708.000000	0.013484
707.000000	0.016127
706.000000	0.018267
705.000000	0.020753
704.000000	0.023539
703.000000	0.026272
702.000000	0.029702
701.000000	0.033363
700.000000	0.037298
699.000000	0.041935
698.000000	0.046795
697.000000	0.052470
696.000000	0.058869
695.000000	0.066679
694.000000	0.074533
693.000000	0.083130
692.000000	0.092849
691.000000	0.103094
690.000000	0.114546
689.000000	0.125686
688.000000	0.136749
687.000000	0.148084
686.000000	0.158949
685.000000	0.169756
684.000000	0.180075
683.000000	0.189444
682.000000	0.198446
681.000000	0.205789
680.000000	0.211859
679.000000	0.217771
678.000000	0.222715
677.000000	0.226591
676.000000	0.229636
675.000000	0.231860
674.000000	0.232267
673.000000	0.231199
672.000000	0.229254
671.000000	0.225964
670.000000	0.220933
669.000000	0.214065
668.000000	0.205882
667.000000	0.196910
666.000000	0.186794
665.000000	0.175583
664.000000	0.164584
663.000000	0.154312
662.000000	0.143894
661.000000	0.133505
660.000000	0.124025
659.000000	0.115731
658.000000	0.108576
657.000000	0.101393
656.000000	0.094893
655.000000	0.089590
654.000000	0.085046
653.000000	0.081736
652.000000	0.078799
651.000000	0.075960
650.000000	0.074087
649.000000	0.072973
648.000000	0.071888
647.000000	0.071013
646.000000	0.070444
645.000000	0.069978
644.000000	0.070137
643.000000	0.070387
642.000000	0.070668
641.000000	0.070729
640.000000	0.071795
639.000000	0.072189
638.000000	0.072363
637.000000	0.073284
636.000000	0.073772
635.000000	0.073849
634.000000	0.073813
633.000000	0.074143
632.000000	0.073970
631.000000	0.073610
630.000000	0.073176
629.000000	0.072177
628.000000	0.071699
627.000000	0.071165
626.000000	0.069939
625.000000	0.069334
624.000000	0.068905
623.000000	0.068622
622.000000	0.067440
621.000000	0.066464
620.000000	0.065417
619.000000	0.064296
618.000000	0.062903
617.000000	0.061823
616.000000	0.060597
615.000000	0.059135
614.000000	0.057604
613.000000	0.056444
612.000000	0.055066
611.000000	0.053376
610.000000	0.052229
609.000000	0.050517
608.000000	0.049476
607.000000	0.047721
606.000000	0.046901
605.000000	0.046792
604.000000	0.045409
603.000000	0.044778
602.000000	0.043953
601.000000	0.044286
600.000000	0.044023
599.000000	0.044003
598.000000	0.043560
597.000000	0.043970
596.000000	0.044363
595.000000	0.044608
594.000000	0.044821
593.000000	0.045019
592.000000	0.045081
591.000000	0.045255
590.000000	0.045259
589.000000	0.045065
588.000000	0.044908
587.000000	0.044724
586.000000	0.044360
585.000000	0.044281
584.000000	0.043935
583.000000	0.043347
582.000000	0.043070
581.000000	0.042250
580.000000	0.042591
579.000000	0.041845
578.000000	0.041306
577.000000	0.041495
576.000000	0.040718
575.000000	0.040360
574.000000	0.040076
573.000000	0.039679
572.000000	0.039868
571.000000	0.039711
570.000000	0.039576
569.000000	0.039911
568.000000	0.040109
567.000000	0.040414
566.000000	0.041117
565.000000	0.041263
564.000000	0.041897
563.000000	0.042798
562.000000	0.043297
561.000000	0.044566
560.000000	0.045757
559.000000	0.046620
558.000000	0.047897
557.000000	0.049267
556.000000	0.049911
555.000000	0.050663
554.000000	0.052580
553.000000	0.054462
552.000000	0.054632
551.000000	0.057171
550.000000	0.057851
549.000000	0.059053
548.000000	0.060299
547.000000	0.061680
546.000000	0.063320
545.000000	0.063797
544.000000	0.064926
543.000000	0.066408
542.000000	0.067695
541.000000	0.069218
540.000000	0.069896
539.000000	0.071114
538.000000	0.072859
537.000000	0.075034
536.000000	0.075674
535.000000	0.077352
534.000000	0.079248
533.000000	0.081019
532.000000	0.083080
531.000000	0.084559
530.000000	0.087153
529.000000	0.089212
528.000000	0.091685
527.000000	0.094891
526.000000	0.097532
525.000000	0.100562
524.000000	0.103877
523.000000	0.107123
522.000000	0.111612
521.000000	0.115598
520.000000	0.119929
519.000000	0.124499
518.000000	0.129406
517.000000	0.134792
516.000000	0.140439
515.000000	0.146307
514.000000	0.152677
513.000000	0.158968
512.000000	0.165453
511.000000	0.171391
510.000000	0.178044
509.000000	0.184584
508.000000	0.192037
507.000000	0.199241
506.000000	0.206307
505.000000	0.212626
504.000000	0.218408
503.000000	0.225045
502.000000	0.231348
501.000000	0.237068
500.000000	0.242446
499.000000	0.246858
498.000000	0.251216
497.000000	0.255617
496.000000	0.259805
495.000000	0.262588
494.000000	0.265596
493.000000	0.268230
492.000000	0.270640
491.000000	0.272568
490.000000	0.274103
489.000000	0.275846
488.000000	0.277069
487.000000	0.278772
486.000000	0.279548
485.000000	0.281037
484.000000	0.282083
483.000000	0.283508
482.000000	0.285151
481.000000	0.286929
480.000000	0.288941
479.000000	0.291012
478.000000	0.293582
477.000000	0.297279
476.000000	0.300763
475.000000	0.304599
474.000000	0.309078
473.000000	0.313176
472.000000	0.316957
471.000000	0.321461
470.000000	0.326836
469.000000	0.331925
468.000000	0.336685
467.000000	0.341348
466.000000	0.345863
465.000000	0.350369
464.000000	0.354996
463.000000	0.359051
462.000000	0.363319
461.000000	0.367956
460.000000	0.372373
459.000000	0.376200
458.000000	0.379229
457.000000	0.383367
456.000000	0.386974
455.000000	0.389980
454.000000	0.393661
453.000000	0.396033
452.000000	0.399053
451.000000	0.402138
450.000000	0.404899
449.000000	0.406695
448.000000	0.410093
447.000000	0.412866
446.000000	0.414623
445.000000	0.415686
444.000000	0.415816
443.000000	0.416532
442.000000	0.416829
441.000000	0.416160
440.000000	0.415064
439.000000	0.413649
438.000000	0.412242
437.000000	0.411166
436.000000	0.409358
435.000000	0.407430
434.000000	0.406193
433.000000	0.404125
432.000000	0.402221
431.000000	0.400436
430.000000	0.398067
429.000000	0.396018
428.000000	0.393995
427.000000	0.391961
426.000000	0.389863
425.000000	0.388042
424.000000	0.385446
423.000000	0.383379
422.000000	0.381197
421.000000	0.378014
420.000000	0.375206
419.000000	0.373271
418.000000	0.371368
417.000000	0.368871
416.000000	0.365335
415.000000	0.362602
414.000000	0.359797
413.000000	0.356538
412.000000	0.353006
411.000000	0.349743
410.000000	0.346771
409.000000	0.343987
408.000000	0.341625
407.000000	0.337954
406.000000	0.334324
405.000000	0.331816
404.000000	0.328974
403.000000	0.326045
402.000000	0.323264
401.000000	0.320606
400.000000	0.318013
399.000000	0.316541
398.000000	0.315524
397.000000	0.313768
396.000000	0.310920
395.000000	0.308918
394.000000	0.308406
393.000000	0.307309
392.000000	0.304865
391.000000	0.302735
390.000000	0.301522
389.000000	0.299835
388.000000	0.297713
387.000000	0.295597
386.000000	0.292431
385.000000	0.288896
384.000000	0.285739
383.000000	0.283352
382.000000	0.280356
381.000000	0.276123
380.000000	0.270782
379.000000	0.266906
378.000000	0.257366
377.000000	0.249719
376.000000	0.245492
375.000000	0.242794
374.000000	0.238723
373.000000	0.235410
372.000000	0.231815
371.000000	0.228590
370.000000	0.224740
369.000000	0.222712
368.000000	0.220363
367.000000	0.219013
366.000000	0.216642
365.000000	0.213728
364.000000	0.208941
363.000000	0.206365
362.000000	0.205195
361.000000	0.203282
360.000000	0.203112
359.000000	0.199971
358.000000	0.199430
357.000000	0.197440
356.000000	0.194907
355.000000	0.196073
354.000000	0.194589
353.000000	0.193411
352.000000	0.193937
351.000000	0.192858
350.000000	0.191311
349.000000	0.191912
348.000000	0.194594
347.000000	0.195830
346.000000	0.194887
345.000000	0.197156
344.000000	0.197697
343.000000	0.197997
342.000000	0.198752
341.000000	0.196252
340.000000	0.198250
339.000000	0.196434
338.000000	0.195937
337.000000	0.194815
336.000000	0.197075
335.000000	0.197906
334.000000	0.197250
333.000000	0.194533
332.000000	0.193876
331.000000	0.192551
330.000000	0.193254
329.000000	0.192651
328.000000	0.191346
327.000000	0.190451
326.000000	0.189736
325.000000	0.189837
324.000000	0.189173
323.000000	0.189736
322.000000	0.191208
321.000000	0.189072
320.000000	0.189855
319.000000	0.189522
318.000000	0.190592
317.000000	0.189855
316.000000	0.190917
315.000000	0.192105
314.000000	0.191226
313.000000	0.192491
312.000000	0.189667
311.000000	0.194213
310.000000	0.196320
309.000000	0.197607
308.000000	0.201631
307.000000	0.204899
306.000000	0.207173
305.000000	0.209783
304.000000	0.214820
303.000000	0.217994
302.000000	0.228317
301.000000	0.234518
300.000000	0.241438
