PE UV       SUBTECH     SPECTRUM    ASCII       PEDS        4.00        
   -1
PETIT_34.Sample.Raw.asc
20/12/15
09:54:38.00
20/12/15
09:54:38.00
CNRS
RCC1717_3006_Ca
300.000000
1
Lambda 850
850L1011221
PerkinElmer UV WinLab 6.0.3.0730 / 1.61.00 Lambda 800

0
0
2
0
0
UV/VIS
1
1
1
RBeamAtt,SBeamAtt,150mm sphere / downward view
0
0
0
0
Fix
 
0
0.2
0
0
0
 
 
 
0
 
0
319.2
0
Front
50
 
S:100 R:100
 
0
0
0
 
0
 
 
 
0
 
 
0
0
0
0
0
 
 
 
 
0
0


#HDR
-1
-1
#GR
nm
A
1.0
0.0
800.000000
-1.000000
501
8
0.184704
-0.013694
#DATA
800.000000	-0.012665
799.000000	-0.011956
798.000000	-0.013029
797.000000	-0.012193
796.000000	-0.013694
795.000000	-0.013484
794.000000	-0.012896
793.000000	-0.012327
792.000000	-0.011833
791.000000	-0.011781
790.000000	-0.011476
789.000000	-0.011596
788.000000	-0.011091
787.000000	-0.010859
786.000000	-0.012463
785.000000	-0.012372
784.000000	-0.011959
783.000000	-0.011644
782.000000	-0.010733
781.000000	-0.011196
780.000000	-0.012124
779.000000	-0.012207
778.000000	-0.011758
777.000000	-0.011906
776.000000	-0.011039
775.000000	-0.010839
774.000000	-0.011602
773.000000	-0.012303
772.000000	-0.011715
771.000000	-0.011126
770.000000	-0.012125
769.000000	-0.010752
768.000000	-0.011376
767.000000	-0.011312
766.000000	-0.011777
765.000000	-0.010959
764.000000	-0.011943
763.000000	-0.010995
762.000000	-0.012291
761.000000	-0.012232
760.000000	-0.012633
759.000000	-0.011913
758.000000	-0.012133
757.000000	-0.011902
756.000000	-0.012191
755.000000	-0.010293
754.000000	-0.011608
753.000000	-0.012272
752.000000	-0.011465
751.000000	-0.012230
750.000000	-0.011596
749.000000	-0.010511
748.000000	-0.010299
747.000000	-0.010865
746.000000	-0.011377
745.000000	-0.011742
744.000000	-0.011701
743.000000	-0.010838
742.000000	-0.010749
741.000000	-0.011665
740.000000	-0.010218
739.000000	-0.011567
738.000000	-0.010809
737.000000	-0.011321
736.000000	-0.011088
735.000000	-0.011413
734.000000	-0.010646
733.000000	-0.010632
732.000000	-0.011483
731.000000	-0.010689
730.000000	-0.011140
729.000000	-0.010965
728.000000	-0.010062
727.000000	-0.009693
726.000000	-0.009640
725.000000	-0.009428
724.000000	-0.009661
723.000000	-0.009892
722.000000	-0.009010
721.000000	-0.008380
720.000000	-0.007857
719.000000	-0.007156
718.000000	-0.005870
717.000000	-0.005153
716.000000	-0.003566
715.000000	-0.002931
714.000000	-0.001780
713.000000	0.000152
712.000000	0.001531
711.000000	0.002582
710.000000	0.004181
709.000000	0.005930
708.000000	0.007806
707.000000	0.008848
706.000000	0.010120
705.000000	0.011247
704.000000	0.013224
703.000000	0.014949
702.000000	0.016880
701.000000	0.019158
700.000000	0.021702
699.000000	0.024646
698.000000	0.027682
697.000000	0.030592
696.000000	0.033934
695.000000	0.038004
694.000000	0.042870
693.000000	0.047598
692.000000	0.052903
691.000000	0.058798
690.000000	0.064743
689.000000	0.070969
688.000000	0.077394
687.000000	0.083402
686.000000	0.089280
685.000000	0.095465
684.000000	0.101054
683.000000	0.105796
682.000000	0.110506
681.000000	0.114761
680.000000	0.117972
679.000000	0.120886
678.000000	0.123810
677.000000	0.125907
676.000000	0.127187
675.000000	0.128140
674.000000	0.128064
673.000000	0.127297
672.000000	0.126061
671.000000	0.123495
670.000000	0.120742
669.000000	0.117475
668.000000	0.113022
667.000000	0.108297
666.000000	0.103285
665.000000	0.098005
664.000000	0.092533
663.000000	0.086810
662.000000	0.081335
661.000000	0.076124
660.000000	0.071542
659.000000	0.067337
658.000000	0.063574
657.000000	0.059696
656.000000	0.056363
655.000000	0.053837
654.000000	0.051559
653.000000	0.050405
652.000000	0.049668
651.000000	0.048116
650.000000	0.047196
649.000000	0.046874
648.000000	0.046734
647.000000	0.046418
646.000000	0.046558
645.000000	0.046252
644.000000	0.046543
643.000000	0.047105
642.000000	0.046711
641.000000	0.046419
640.000000	0.047245
639.000000	0.047008
638.000000	0.046981
637.000000	0.047617
636.000000	0.047898
635.000000	0.047345
634.000000	0.047177
633.000000	0.047227
632.000000	0.046988
631.000000	0.046775
630.000000	0.046497
629.000000	0.045594
628.000000	0.044860
627.000000	0.044650
626.000000	0.044270
625.000000	0.044214
624.000000	0.043702
623.000000	0.042919
622.000000	0.042851
621.000000	0.042222
620.000000	0.042108
619.000000	0.041147
618.000000	0.040491
617.000000	0.039594
616.000000	0.039036
615.000000	0.037751
614.000000	0.036921
613.000000	0.036315
612.000000	0.035388
611.000000	0.034508
610.000000	0.033741
609.000000	0.032543
608.000000	0.031922
607.000000	0.031361
606.000000	0.031243
605.000000	0.030836
604.000000	0.030228
603.000000	0.030476
602.000000	0.029881
601.000000	0.030683
600.000000	0.030912
599.000000	0.031431
598.000000	0.031456
597.000000	0.032020
596.000000	0.032813
595.000000	0.033297
594.000000	0.033396
593.000000	0.033678
592.000000	0.034273
591.000000	0.034906
590.000000	0.035017
589.000000	0.034395
588.000000	0.034806
587.000000	0.034855
586.000000	0.034640
585.000000	0.034630
584.000000	0.035080
583.000000	0.034075
582.000000	0.034229
581.000000	0.033834
580.000000	0.033869
579.000000	0.033951
578.000000	0.033744
577.000000	0.033685
576.000000	0.033937
575.000000	0.034435
574.000000	0.034681
573.000000	0.034620
572.000000	0.034942
571.000000	0.035310
570.000000	0.035598
569.000000	0.036429
568.000000	0.037434
567.000000	0.037861
566.000000	0.038858
565.000000	0.039976
564.000000	0.041501
563.000000	0.042124
562.000000	0.043621
561.000000	0.045823
560.000000	0.046647
559.000000	0.048012
558.000000	0.049736
557.000000	0.052301
556.000000	0.053261
555.000000	0.054747
554.000000	0.055991
553.000000	0.058175
552.000000	0.059116
551.000000	0.061181
550.000000	0.062387
549.000000	0.063961
548.000000	0.065424
547.000000	0.066645
546.000000	0.068037
545.000000	0.069525
544.000000	0.070205
543.000000	0.071616
542.000000	0.073032
541.000000	0.074311
540.000000	0.074926
539.000000	0.076524
538.000000	0.077570
537.000000	0.078908
536.000000	0.079883
535.000000	0.080836
534.000000	0.081991
533.000000	0.082559
532.000000	0.083564
531.000000	0.084091
530.000000	0.085561
529.000000	0.086122
528.000000	0.087342
527.000000	0.088255
526.000000	0.089589
525.000000	0.089661
524.000000	0.090336
523.000000	0.090568
522.000000	0.092207
521.000000	0.092670
520.000000	0.093559
519.000000	0.094063
518.000000	0.094731
517.000000	0.095660
516.000000	0.096998
515.000000	0.097847
514.000000	0.098911
513.000000	0.100071
512.000000	0.101099
511.000000	0.102032
510.000000	0.102636
509.000000	0.104177
508.000000	0.105657
507.000000	0.107084
506.000000	0.108658
505.000000	0.109947
504.000000	0.111093
503.000000	0.112600
502.000000	0.115046
501.000000	0.116426
500.000000	0.117972
499.000000	0.119153
498.000000	0.120482
497.000000	0.121509
496.000000	0.123351
495.000000	0.123723
494.000000	0.124817
493.000000	0.126208
492.000000	0.126821
491.000000	0.127626
490.000000	0.128736
489.000000	0.129435
488.000000	0.129451
487.000000	0.130866
486.000000	0.131669
485.000000	0.132761
484.000000	0.133970
483.000000	0.135097
482.000000	0.136029
481.000000	0.137068
480.000000	0.138446
479.000000	0.139507
478.000000	0.141700
477.000000	0.143300
476.000000	0.145122
475.000000	0.147160
474.000000	0.149698
473.000000	0.152013
472.000000	0.153423
471.000000	0.155477
470.000000	0.157186
469.000000	0.159356
468.000000	0.160998
467.000000	0.163101
466.000000	0.163783
465.000000	0.164628
464.000000	0.165290
463.000000	0.165498
462.000000	0.165500
461.000000	0.166171
460.000000	0.166638
459.000000	0.166224
458.000000	0.165833
457.000000	0.165596
456.000000	0.166205
455.000000	0.165965
454.000000	0.166464
453.000000	0.166038
452.000000	0.166448
451.000000	0.167207
450.000000	0.167825
449.000000	0.169003
448.000000	0.171033
447.000000	0.172820
446.000000	0.174587
445.000000	0.176041
444.000000	0.177166
443.000000	0.179654
442.000000	0.180940
441.000000	0.181329
440.000000	0.182123
439.000000	0.182825
438.000000	0.183728
437.000000	0.184308
436.000000	0.184704
435.000000	0.184099
434.000000	0.184005
433.000000	0.183639
432.000000	0.182382
431.000000	0.181658
430.000000	0.180793
429.000000	0.180096
428.000000	0.179281
427.000000	0.177862
426.000000	0.177127
425.000000	0.176467
424.000000	0.175923
423.000000	0.176002
422.000000	0.176145
421.000000	0.176053
420.000000	0.175757
419.000000	0.176295
418.000000	0.176756
417.000000	0.176298
416.000000	0.175730
415.000000	0.176178
414.000000	0.175828
413.000000	0.175342
412.000000	0.174682
411.000000	0.173957
410.000000	0.173823
409.000000	0.172480
408.000000	0.171633
407.000000	0.170570
406.000000	0.168702
405.000000	0.167638
404.000000	0.166599
403.000000	0.165343
402.000000	0.164070
401.000000	0.163108
400.000000	0.161266
399.000000	0.160006
398.000000	0.159831
397.000000	0.159098
396.000000	0.158006
395.000000	0.157049
394.000000	0.156622
393.000000	0.156756
392.000000	0.156528
391.000000	0.156341
390.000000	0.156417
389.000000	0.156004
388.000000	0.155407
387.000000	0.155187
386.000000	0.154037
385.000000	0.153620
384.000000	0.153373
383.000000	0.152270
382.000000	0.151703
381.000000	0.150564
380.000000	0.149183
379.000000	0.148732
378.000000	0.144665
377.000000	0.140704
376.000000	0.139782
375.000000	0.140016
374.000000	0.137404
373.000000	0.136939
372.000000	0.135797
371.000000	0.133756
370.000000	0.131533
369.000000	0.130989
368.000000	0.132209
367.000000	0.130435
366.000000	0.129589
365.000000	0.130162
364.000000	0.127405
363.000000	0.128184
362.000000	0.125148
361.000000	0.125455
360.000000	0.124506
359.000000	0.123271
358.000000	0.124082
357.000000	0.123032
356.000000	0.123372
355.000000	0.122132
354.000000	0.121535
353.000000	0.122388
352.000000	0.124597
351.000000	0.124160
350.000000	0.123487
349.000000	0.125386
348.000000	0.127273
347.000000	0.130762
346.000000	0.131106
345.000000	0.134591
344.000000	0.136176
343.000000	0.138139
342.000000	0.139875
341.000000	0.139841
340.000000	0.146300
339.000000	0.145320
338.000000	0.144270
337.000000	0.144116
336.000000	0.146424
335.000000	0.148324
334.000000	0.148230
333.000000	0.147590
332.000000	0.146830
331.000000	0.146254
330.000000	0.149249
329.000000	0.147139
328.000000	0.144940
327.000000	0.148635
326.000000	0.150150
325.000000	0.146377
324.000000	0.147053
323.000000	0.150988
322.000000	0.154169
321.000000	0.153100
320.000000	0.152472
319.000000	0.151445
318.000000	0.144119
317.000000	0.143019
316.000000	0.144210
315.000000	0.145012
314.000000	0.143731
313.000000	0.144131
312.000000	0.144694
311.000000	0.146509
310.000000	0.144009
309.000000	0.146350
308.000000	0.149174
307.000000	0.149248
306.000000	0.151833
305.000000	0.152186
304.000000	0.155430
303.000000	0.153171
302.000000	0.161740
301.000000	0.162864
300.000000	0.168533
