PE UV       SUBTECH     SPECTRUM    ASCII       PEDS        4.00        
   -1
PETIT_24.Sample.Raw.asc
20/12/15
09:19:02.00
20/12/15
09:19:02.00
CNRS
Blanc01
300.000000
1
Lambda 850
850L1011221
PerkinElmer UV WinLab 6.0.3.0730 / 1.61.00 Lambda 800

0
0
2
0
0
UV/VIS
1
1
1
RBeamAtt,SBeamAtt,150mm sphere / downward view
0
0
0
0
Fix
 
0
0.2
0
0
0
 
 
 
0
 
0
319.2
0
Front
50
 
S:100 R:100
 
0
0
0
 
0
 
 
 
0
 
 
0
0
0
0
0
 
 
 
 
0
0


#HDR
-1
-1
#GR
nm
A
1.0
0.0
800.000000
-1.000000
501
8
0.009947
-0.023386
#DATA
800.000000	-0.013189
799.000000	-0.014400
798.000000	-0.014263
797.000000	-0.013503
796.000000	-0.015010
795.000000	-0.015320
794.000000	-0.014693
793.000000	-0.014639
792.000000	-0.014052
791.000000	-0.013255
790.000000	-0.013545
789.000000	-0.013901
788.000000	-0.014720
787.000000	-0.013772
786.000000	-0.015014
785.000000	-0.014230
784.000000	-0.014304
783.000000	-0.014204
782.000000	-0.012560
781.000000	-0.013230
780.000000	-0.015619
779.000000	-0.014522
778.000000	-0.013834
777.000000	-0.013799
776.000000	-0.013586
775.000000	-0.013500
774.000000	-0.012254
773.000000	-0.013835
772.000000	-0.013543
771.000000	-0.013578
770.000000	-0.013501
769.000000	-0.012787
768.000000	-0.012849
767.000000	-0.013232
766.000000	-0.013104
765.000000	-0.013062
764.000000	-0.013650
763.000000	-0.014271
762.000000	-0.014033
761.000000	-0.013202
760.000000	-0.013799
759.000000	-0.013293
758.000000	-0.014442
757.000000	-0.012899
756.000000	-0.013404
755.000000	-0.012355
754.000000	-0.013915
753.000000	-0.014393
752.000000	-0.014117
751.000000	-0.014799
750.000000	-0.013528
749.000000	-0.012055
748.000000	-0.012463
747.000000	-0.013182
746.000000	-0.013506
745.000000	-0.013755
744.000000	-0.013771
743.000000	-0.013822
742.000000	-0.013505
741.000000	-0.013915
740.000000	-0.013032
739.000000	-0.014438
738.000000	-0.013940
737.000000	-0.014201
736.000000	-0.014040
735.000000	-0.013410
734.000000	-0.013522
733.000000	-0.014036
732.000000	-0.014584
731.000000	-0.014239
730.000000	-0.014372
729.000000	-0.014383
728.000000	-0.014632
727.000000	-0.014689
726.000000	-0.014504
725.000000	-0.014057
724.000000	-0.014457
723.000000	-0.014681
722.000000	-0.014370
721.000000	-0.014106
720.000000	-0.014967
719.000000	-0.014964
718.000000	-0.014861
717.000000	-0.014797
716.000000	-0.014958
715.000000	-0.015069
714.000000	-0.014327
713.000000	-0.014732
712.000000	-0.014938
711.000000	-0.014906
710.000000	-0.014715
709.000000	-0.014621
708.000000	-0.015252
707.000000	-0.014996
706.000000	-0.015000
705.000000	-0.014924
704.000000	-0.014952
703.000000	-0.015299
702.000000	-0.015159
701.000000	-0.015182
700.000000	-0.015328
699.000000	-0.015503
698.000000	-0.015561
697.000000	-0.014965
696.000000	-0.014833
695.000000	-0.014829
694.000000	-0.014969
693.000000	-0.015025
692.000000	-0.014660
691.000000	-0.014492
690.000000	-0.014600
689.000000	-0.014722
688.000000	-0.014675
687.000000	-0.014935
686.000000	-0.015079
685.000000	-0.014701
684.000000	-0.014945
683.000000	-0.015135
682.000000	-0.014807
681.000000	-0.014886
680.000000	-0.015311
679.000000	-0.015039
678.000000	-0.014774
677.000000	-0.014889
676.000000	-0.014746
675.000000	-0.014292
674.000000	-0.014568
673.000000	-0.015046
672.000000	-0.015068
671.000000	-0.015449
670.000000	-0.014940
669.000000	-0.014703
668.000000	-0.014619
667.000000	-0.014743
666.000000	-0.015074
665.000000	-0.015211
664.000000	-0.015357
663.000000	-0.015329
662.000000	-0.015131
661.000000	-0.015363
660.000000	-0.015189
659.000000	-0.014950
658.000000	-0.014584
657.000000	-0.014906
656.000000	-0.015239
655.000000	-0.015066
654.000000	-0.015151
653.000000	-0.015173
652.000000	-0.014987
651.000000	-0.015251
650.000000	-0.015486
649.000000	-0.015334
648.000000	-0.015185
647.000000	-0.015280
646.000000	-0.015362
645.000000	-0.015260
644.000000	-0.014913
643.000000	-0.014938
642.000000	-0.014941
641.000000	-0.015169
640.000000	-0.014795
639.000000	-0.014772
638.000000	-0.014954
637.000000	-0.014798
636.000000	-0.014697
635.000000	-0.014938
634.000000	-0.015046
633.000000	-0.015163
632.000000	-0.015246
631.000000	-0.015482
630.000000	-0.014788
629.000000	-0.015032
628.000000	-0.015152
627.000000	-0.015216
626.000000	-0.015185
625.000000	-0.015093
624.000000	-0.015418
623.000000	-0.015489
622.000000	-0.015645
621.000000	-0.015157
620.000000	-0.014812
619.000000	-0.015189
618.000000	-0.015102
617.000000	-0.015213
616.000000	-0.015126
615.000000	-0.015360
614.000000	-0.015426
613.000000	-0.014893
612.000000	-0.014961
611.000000	-0.015270
610.000000	-0.015258
609.000000	-0.015215
608.000000	-0.014775
607.000000	-0.015610
606.000000	-0.015074
605.000000	-0.014563
604.000000	-0.014942
603.000000	-0.014626
602.000000	-0.015298
601.000000	-0.014932
600.000000	-0.014988
599.000000	-0.014825
598.000000	-0.015645
597.000000	-0.015429
596.000000	-0.015288
595.000000	-0.015040
594.000000	-0.015120
593.000000	-0.015378
592.000000	-0.015476
591.000000	-0.015043
590.000000	-0.015240
589.000000	-0.015573
588.000000	-0.015098
587.000000	-0.015053
586.000000	-0.015745
585.000000	-0.015385
584.000000	-0.015170
583.000000	-0.015717
582.000000	-0.015675
581.000000	-0.015552
580.000000	-0.015318
579.000000	-0.015144
578.000000	-0.015590
577.000000	-0.015346
576.000000	-0.015892
575.000000	-0.015486
574.000000	-0.015137
573.000000	-0.014840
572.000000	-0.015170
571.000000	-0.015538
570.000000	-0.015479
569.000000	-0.015639
568.000000	-0.015429
567.000000	-0.015504
566.000000	-0.015160
565.000000	-0.015185
564.000000	-0.015148
563.000000	-0.015313
562.000000	-0.015515
561.000000	-0.015043
560.000000	-0.015082
559.000000	-0.015192
558.000000	-0.015022
557.000000	-0.014652
556.000000	-0.014579
555.000000	-0.015258
554.000000	-0.015352
553.000000	-0.014427
552.000000	-0.015109
551.000000	-0.014511
550.000000	-0.015178
549.000000	-0.015041
548.000000	-0.014451
547.000000	-0.014587
546.000000	-0.014591
545.000000	-0.015124
544.000000	-0.014758
543.000000	-0.015074
542.000000	-0.014805
541.000000	-0.014729
540.000000	-0.015144
539.000000	-0.014702
538.000000	-0.014989
537.000000	-0.014645
536.000000	-0.014621
535.000000	-0.014848
534.000000	-0.014013
533.000000	-0.014605
532.000000	-0.014712
531.000000	-0.015144
530.000000	-0.015103
529.000000	-0.015355
528.000000	-0.015311
527.000000	-0.014500
526.000000	-0.014992
525.000000	-0.015229
524.000000	-0.015253
523.000000	-0.015151
522.000000	-0.015180
521.000000	-0.015068
520.000000	-0.015294
519.000000	-0.015323
518.000000	-0.015421
517.000000	-0.015459
516.000000	-0.015060
515.000000	-0.015188
514.000000	-0.014947
513.000000	-0.014681
512.000000	-0.014721
511.000000	-0.014820
510.000000	-0.015424
509.000000	-0.015622
508.000000	-0.015062
507.000000	-0.015081
506.000000	-0.015048
505.000000	-0.014960
504.000000	-0.015199
503.000000	-0.014808
502.000000	-0.014837
501.000000	-0.014415
500.000000	-0.014431
499.000000	-0.014662
498.000000	-0.014331
497.000000	-0.014499
496.000000	-0.014512
495.000000	-0.014868
494.000000	-0.014861
493.000000	-0.014530
492.000000	-0.014334
491.000000	-0.014804
490.000000	-0.014782
489.000000	-0.014369
488.000000	-0.014919
487.000000	-0.014316
486.000000	-0.014478
485.000000	-0.014892
484.000000	-0.014551
483.000000	-0.014556
482.000000	-0.014680
481.000000	-0.015091
480.000000	-0.015165
479.000000	-0.015288
478.000000	-0.014888
477.000000	-0.014949
476.000000	-0.014965
475.000000	-0.014616
474.000000	-0.014351
473.000000	-0.014932
472.000000	-0.015495
471.000000	-0.015428
470.000000	-0.015381
469.000000	-0.015181
468.000000	-0.015215
467.000000	-0.015279
466.000000	-0.015163
465.000000	-0.015094
464.000000	-0.015335
463.000000	-0.015613
462.000000	-0.015593
461.000000	-0.015247
460.000000	-0.015306
459.000000	-0.015261
458.000000	-0.015329
457.000000	-0.015535
456.000000	-0.015549
455.000000	-0.015753
454.000000	-0.014877
453.000000	-0.015419
452.000000	-0.015230
451.000000	-0.014900
450.000000	-0.015382
449.000000	-0.015912
448.000000	-0.015371
447.000000	-0.015073
446.000000	-0.015198
445.000000	-0.015019
444.000000	-0.015314
443.000000	-0.014629
442.000000	-0.014716
441.000000	-0.015438
440.000000	-0.015820
439.000000	-0.016355
438.000000	-0.015711
437.000000	-0.015498
436.000000	-0.015808
435.000000	-0.016084
434.000000	-0.015777
433.000000	-0.015653
432.000000	-0.015855
431.000000	-0.015643
430.000000	-0.015590
429.000000	-0.015612
428.000000	-0.015685
427.000000	-0.015774
426.000000	-0.015728
425.000000	-0.015701
424.000000	-0.015872
423.000000	-0.015864
422.000000	-0.015643
421.000000	-0.016055
420.000000	-0.016103
419.000000	-0.015905
418.000000	-0.016388
417.000000	-0.016783
416.000000	-0.016635
415.000000	-0.016323
414.000000	-0.016613
413.000000	-0.016924
412.000000	-0.016881
411.000000	-0.016605
410.000000	-0.016124
409.000000	-0.016341
408.000000	-0.016538
407.000000	-0.016635
406.000000	-0.016910
405.000000	-0.016993
404.000000	-0.016908
403.000000	-0.016734
402.000000	-0.016653
401.000000	-0.016876
400.000000	-0.016905
399.000000	-0.016742
398.000000	-0.017094
397.000000	-0.016771
396.000000	-0.017077
395.000000	-0.017755
394.000000	-0.017929
393.000000	-0.017829
392.000000	-0.018127
391.000000	-0.017742
390.000000	-0.017257
389.000000	-0.017070
388.000000	-0.017297
387.000000	-0.017496
386.000000	-0.017494
385.000000	-0.018143
384.000000	-0.018263
383.000000	-0.018344
382.000000	-0.017572
381.000000	-0.017371
380.000000	-0.018517
379.000000	-0.018146
378.000000	-0.017343
377.000000	-0.017141
376.000000	-0.016431
375.000000	-0.014697
374.000000	-0.016415
373.000000	-0.017369
372.000000	-0.017327
371.000000	-0.017701
370.000000	-0.019703
369.000000	-0.019893
368.000000	-0.019176
367.000000	-0.017933
366.000000	-0.018638
365.000000	-0.017541
364.000000	-0.019319
363.000000	-0.018156
362.000000	-0.019805
361.000000	-0.018739
360.000000	-0.017852
359.000000	-0.018449
358.000000	-0.018543
357.000000	-0.019633
356.000000	-0.019778
355.000000	-0.020372
354.000000	-0.020139
353.000000	-0.020444
352.000000	-0.020324
351.000000	-0.022067
350.000000	-0.023386
349.000000	-0.021858
348.000000	-0.021566
347.000000	-0.020376
346.000000	-0.020203
345.000000	-0.019304
344.000000	-0.018546
343.000000	-0.017525
342.000000	-0.019461
341.000000	-0.020177
340.000000	-0.016927
339.000000	-0.018392
338.000000	-0.019397
337.000000	-0.019339
336.000000	-0.019863
335.000000	-0.019145
334.000000	-0.017641
333.000000	-0.019794
332.000000	-0.018391
331.000000	-0.020032
330.000000	-0.020291
329.000000	-0.020666
328.000000	-0.022244
327.000000	-0.018008
326.000000	-0.018006
325.000000	-0.017629
324.000000	-0.020413
323.000000	-0.017332
322.000000	-0.011817
321.000000	-0.014942
320.000000	-0.015803
319.000000	-0.018874
318.000000	-0.014951
317.000000	-0.014198
316.000000	-0.012787
315.000000	-0.013089
314.000000	-0.012790
313.000000	-0.011039
312.000000	-0.009044
311.000000	-0.009004
310.000000	-0.006395
309.000000	-0.006065
308.000000	-0.002604
307.000000	-0.002567
306.000000	0.000044
305.000000	0.001459
304.000000	0.001072
303.000000	0.001900
302.000000	0.006583
301.000000	0.009048
300.000000	0.009947
