PE UV       SUBTECH     SPECTRUM    ASCII       PEDS        4.00        
   -1
PETIT_38.Sample.Raw.asc
20/12/15
10:08:25.00
20/12/15
10:08:25.00
CNRS
Blanc03
300.000000
1
Lambda 850
850L1011221
PerkinElmer UV WinLab 6.0.3.0730 / 1.61.00 Lambda 800

0
0
2
0
0
UV/VIS
1
1
1
RBeamAtt,SBeamAtt,150mm sphere / downward view
0
0
0
0
Fix
 
0
0.2
0
0
0
 
 
 
0
 
0
319.2
0
Front
50
 
S:100 R:100
 
0
0
0
 
0
 
 
 
0
 
 
0
0
0
0
0
 
 
 
 
0
0


#HDR
-1
-1
#GR
nm
A
1.0
0.0
800.000000
-1.000000
501
8
0.008580
-0.021376
#DATA
800.000000	-0.013438
799.000000	-0.013789
798.000000	-0.012984
797.000000	-0.012600
796.000000	-0.014600
795.000000	-0.014827
794.000000	-0.013285
793.000000	-0.014410
792.000000	-0.013395
791.000000	-0.012841
790.000000	-0.013329
789.000000	-0.013537
788.000000	-0.012903
787.000000	-0.012741
786.000000	-0.014348
785.000000	-0.013949
784.000000	-0.014238
783.000000	-0.013701
782.000000	-0.012618
781.000000	-0.014087
780.000000	-0.013461
779.000000	-0.013875
778.000000	-0.013484
777.000000	-0.013577
776.000000	-0.012747
775.000000	-0.012280
774.000000	-0.013237
773.000000	-0.014088
772.000000	-0.013005
771.000000	-0.013408
770.000000	-0.013852
769.000000	-0.012581
768.000000	-0.013631
767.000000	-0.013316
766.000000	-0.013058
765.000000	-0.013452
764.000000	-0.013672
763.000000	-0.014039
762.000000	-0.013638
761.000000	-0.013759
760.000000	-0.013459
759.000000	-0.012985
758.000000	-0.014489
757.000000	-0.013484
756.000000	-0.013474
755.000000	-0.012381
754.000000	-0.013745
753.000000	-0.014637
752.000000	-0.013788
751.000000	-0.013614
750.000000	-0.013297
749.000000	-0.012095
748.000000	-0.012837
747.000000	-0.013438
746.000000	-0.013167
745.000000	-0.012852
744.000000	-0.013438
743.000000	-0.013482
742.000000	-0.013228
741.000000	-0.013151
740.000000	-0.012139
739.000000	-0.014168
738.000000	-0.013263
737.000000	-0.013545
736.000000	-0.013247
735.000000	-0.013759
734.000000	-0.013624
733.000000	-0.013590
732.000000	-0.013958
731.000000	-0.014266
730.000000	-0.014645
729.000000	-0.014905
728.000000	-0.014016
727.000000	-0.014160
726.000000	-0.014034
725.000000	-0.014169
724.000000	-0.013948
723.000000	-0.013984
722.000000	-0.014241
721.000000	-0.014581
720.000000	-0.015036
719.000000	-0.014698
718.000000	-0.014881
717.000000	-0.014912
716.000000	-0.014591
715.000000	-0.014730
714.000000	-0.014830
713.000000	-0.014942
712.000000	-0.014457
711.000000	-0.014812
710.000000	-0.014777
709.000000	-0.014814
708.000000	-0.014366
707.000000	-0.014512
706.000000	-0.014599
705.000000	-0.014710
704.000000	-0.014631
703.000000	-0.014959
702.000000	-0.015169
701.000000	-0.015522
700.000000	-0.015480
699.000000	-0.015053
698.000000	-0.014595
697.000000	-0.014199
696.000000	-0.014228
695.000000	-0.014400
694.000000	-0.014584
693.000000	-0.015213
692.000000	-0.014779
691.000000	-0.014423
690.000000	-0.014358
689.000000	-0.014333
688.000000	-0.014585
687.000000	-0.014539
686.000000	-0.014472
685.000000	-0.014419
684.000000	-0.014364
683.000000	-0.014529
682.000000	-0.014079
681.000000	-0.014129
680.000000	-0.014725
679.000000	-0.014669
678.000000	-0.014640
677.000000	-0.014671
676.000000	-0.014586
675.000000	-0.014620
674.000000	-0.014465
673.000000	-0.014477
672.000000	-0.014894
671.000000	-0.015013
670.000000	-0.014627
669.000000	-0.014686
668.000000	-0.014597
667.000000	-0.014787
666.000000	-0.014770
665.000000	-0.014859
664.000000	-0.015165
663.000000	-0.015028
662.000000	-0.014869
661.000000	-0.015135
660.000000	-0.014912
659.000000	-0.014638
658.000000	-0.014199
657.000000	-0.014629
656.000000	-0.015208
655.000000	-0.014942
654.000000	-0.014982
653.000000	-0.014821
652.000000	-0.014708
651.000000	-0.015022
650.000000	-0.015194
649.000000	-0.015173
648.000000	-0.014704
647.000000	-0.014803
646.000000	-0.014998
645.000000	-0.015049
644.000000	-0.015159
643.000000	-0.015166
642.000000	-0.014982
641.000000	-0.015305
640.000000	-0.014501
639.000000	-0.014777
638.000000	-0.015237
637.000000	-0.014397
636.000000	-0.014444
635.000000	-0.014908
634.000000	-0.015042
633.000000	-0.014467
632.000000	-0.014649
631.000000	-0.014981
630.000000	-0.014763
629.000000	-0.014875
628.000000	-0.015291
627.000000	-0.015022
626.000000	-0.015167
625.000000	-0.015568
624.000000	-0.015413
623.000000	-0.015161
622.000000	-0.015149
621.000000	-0.015208
620.000000	-0.014856
619.000000	-0.014909
618.000000	-0.015155
617.000000	-0.015306
616.000000	-0.015178
615.000000	-0.015327
614.000000	-0.015008
613.000000	-0.015200
612.000000	-0.015110
611.000000	-0.014754
610.000000	-0.014514
609.000000	-0.015104
608.000000	-0.015083
607.000000	-0.015273
606.000000	-0.014549
605.000000	-0.014439
604.000000	-0.014990
603.000000	-0.014843
602.000000	-0.014971
601.000000	-0.015279
600.000000	-0.015116
599.000000	-0.014859
598.000000	-0.015570
597.000000	-0.015337
596.000000	-0.015183
595.000000	-0.015040
594.000000	-0.015318
593.000000	-0.015558
592.000000	-0.015418
591.000000	-0.014532
590.000000	-0.015065
589.000000	-0.015370
588.000000	-0.015221
587.000000	-0.015292
586.000000	-0.015493
585.000000	-0.015084
584.000000	-0.014794
583.000000	-0.015258
582.000000	-0.015378
581.000000	-0.015740
580.000000	-0.015123
579.000000	-0.015403
578.000000	-0.015615
577.000000	-0.015444
576.000000	-0.015067
575.000000	-0.015391
574.000000	-0.015021
573.000000	-0.015387
572.000000	-0.015347
571.000000	-0.015176
570.000000	-0.015138
569.000000	-0.015349
568.000000	-0.014851
567.000000	-0.015462
566.000000	-0.015153
565.000000	-0.014916
564.000000	-0.015242
563.000000	-0.015522
562.000000	-0.015394
561.000000	-0.015341
560.000000	-0.014683
559.000000	-0.014588
558.000000	-0.014626
557.000000	-0.014201
556.000000	-0.014517
555.000000	-0.014478
554.000000	-0.014486
553.000000	-0.013995
552.000000	-0.014771
551.000000	-0.014609
550.000000	-0.015108
549.000000	-0.014871
548.000000	-0.014822
547.000000	-0.014535
546.000000	-0.014497
545.000000	-0.014433
544.000000	-0.014590
543.000000	-0.014688
542.000000	-0.015074
541.000000	-0.014378
540.000000	-0.014704
539.000000	-0.014337
538.000000	-0.014806
537.000000	-0.014587
536.000000	-0.014715
535.000000	-0.014790
534.000000	-0.014412
533.000000	-0.014690
532.000000	-0.014627
531.000000	-0.014638
530.000000	-0.014987
529.000000	-0.014980
528.000000	-0.014784
527.000000	-0.014874
526.000000	-0.014625
525.000000	-0.014982
524.000000	-0.014511
523.000000	-0.014777
522.000000	-0.014560
521.000000	-0.014226
520.000000	-0.015039
519.000000	-0.015563
518.000000	-0.015195
517.000000	-0.015452
516.000000	-0.014859
515.000000	-0.015065
514.000000	-0.014567
513.000000	-0.014497
512.000000	-0.014523
511.000000	-0.014766
510.000000	-0.015042
509.000000	-0.014818
508.000000	-0.014721
507.000000	-0.014605
506.000000	-0.014733
505.000000	-0.014183
504.000000	-0.014840
503.000000	-0.014843
502.000000	-0.014500
501.000000	-0.014215
500.000000	-0.013966
499.000000	-0.014434
498.000000	-0.014202
497.000000	-0.014300
496.000000	-0.013952
495.000000	-0.014590
494.000000	-0.014716
493.000000	-0.014076
492.000000	-0.013960
491.000000	-0.014247
490.000000	-0.014225
489.000000	-0.013626
488.000000	-0.014162
487.000000	-0.014318
486.000000	-0.014188
485.000000	-0.013838
484.000000	-0.014091
483.000000	-0.014297
482.000000	-0.013979
481.000000	-0.014143
480.000000	-0.014328
479.000000	-0.014839
478.000000	-0.014399
477.000000	-0.014829
476.000000	-0.014065
475.000000	-0.013965
474.000000	-0.014314
473.000000	-0.014753
472.000000	-0.014771
471.000000	-0.014986
470.000000	-0.014834
469.000000	-0.014375
468.000000	-0.014346
467.000000	-0.014391
466.000000	-0.014599
465.000000	-0.015036
464.000000	-0.014803
463.000000	-0.015046
462.000000	-0.015124
461.000000	-0.014342
460.000000	-0.014397
459.000000	-0.014653
458.000000	-0.014711
457.000000	-0.014817
456.000000	-0.015031
455.000000	-0.015031
454.000000	-0.014400
453.000000	-0.014614
452.000000	-0.014509
451.000000	-0.014734
450.000000	-0.014756
449.000000	-0.015366
448.000000	-0.015364
447.000000	-0.014909
446.000000	-0.014447
445.000000	-0.014367
444.000000	-0.014528
443.000000	-0.013911
442.000000	-0.013890
441.000000	-0.014562
440.000000	-0.015238
439.000000	-0.015623
438.000000	-0.015248
437.000000	-0.014941
436.000000	-0.015031
435.000000	-0.015066
434.000000	-0.014881
433.000000	-0.015042
432.000000	-0.014900
431.000000	-0.014669
430.000000	-0.014814
429.000000	-0.014697
428.000000	-0.014391
427.000000	-0.014933
426.000000	-0.015193
425.000000	-0.015066
424.000000	-0.015322
423.000000	-0.014747
422.000000	-0.014374
421.000000	-0.015095
420.000000	-0.015702
419.000000	-0.015735
418.000000	-0.015546
417.000000	-0.015804
416.000000	-0.015746
415.000000	-0.015369
414.000000	-0.016161
413.000000	-0.016327
412.000000	-0.016462
411.000000	-0.016728
410.000000	-0.015913
409.000000	-0.015469
408.000000	-0.015415
407.000000	-0.015676
406.000000	-0.016199
405.000000	-0.015955
404.000000	-0.015985
403.000000	-0.015882
402.000000	-0.016069
401.000000	-0.016596
400.000000	-0.016686
399.000000	-0.016526
398.000000	-0.016665
397.000000	-0.016852
396.000000	-0.017107
395.000000	-0.016803
394.000000	-0.016656
393.000000	-0.016487
392.000000	-0.016296
391.000000	-0.016079
390.000000	-0.016389
389.000000	-0.017107
388.000000	-0.017077
387.000000	-0.016715
386.000000	-0.017132
385.000000	-0.017638
384.000000	-0.017613
383.000000	-0.017017
382.000000	-0.016990
381.000000	-0.016857
380.000000	-0.017416
379.000000	-0.017272
378.000000	-0.018793
377.000000	-0.016589
376.000000	-0.017017
375.000000	-0.015939
374.000000	-0.017659
373.000000	-0.017915
372.000000	-0.017490
371.000000	-0.016627
370.000000	-0.017847
369.000000	-0.017632
368.000000	-0.017477
367.000000	-0.017322
366.000000	-0.017799
365.000000	-0.017431
364.000000	-0.018108
363.000000	-0.016275
362.000000	-0.018597
361.000000	-0.018433
360.000000	-0.017706
359.000000	-0.018313
358.000000	-0.017381
357.000000	-0.018028
356.000000	-0.018597
355.000000	-0.017226
354.000000	-0.019856
353.000000	-0.018592
352.000000	-0.018756
351.000000	-0.019053
350.000000	-0.021078
349.000000	-0.020188
348.000000	-0.019867
347.000000	-0.019243
346.000000	-0.019589
345.000000	-0.019504
344.000000	-0.018755
343.000000	-0.018299
342.000000	-0.018807
341.000000	-0.020605
340.000000	-0.017605
339.000000	-0.017649
338.000000	-0.019437
337.000000	-0.018655
336.000000	-0.015772
335.000000	-0.017766
334.000000	-0.019636
333.000000	-0.017723
332.000000	-0.018492
331.000000	-0.017586
330.000000	-0.018853
329.000000	-0.019400
328.000000	-0.021376
327.000000	-0.017608
326.000000	-0.016130
325.000000	-0.014893
324.000000	-0.019753
323.000000	-0.016995
322.000000	-0.015684
321.000000	-0.012171
320.000000	-0.014367
319.000000	-0.016080
318.000000	-0.014668
317.000000	-0.014392
316.000000	-0.012243
315.000000	-0.012885
314.000000	-0.010459
313.000000	-0.009464
312.000000	-0.009753
311.000000	-0.008043
310.000000	-0.007205
309.000000	-0.005757
308.000000	-0.002357
307.000000	-0.003361
306.000000	-0.001942
305.000000	0.002749
304.000000	0.001829
303.000000	0.003320
302.000000	0.007652
301.000000	0.008580
300.000000	0.008125
