PE UV       SUBTECH     SPECTRUM    ASCII       PEDS        4.00        
   -1
PETIT-55.Sample.Raw.asc
20/12/15
11:56:13.00
20/12/15
11:56:13.00
CNRS
RCC76_B_DM
300.000000
1
Lambda 850
850L1011221
PerkinElmer UV WinLab 6.0.3.0730 / 1.61.00 Lambda 800

0
0
2
0
0
UV/VIS
1
1
1
RBeamAtt,SBeamAtt,150mm sphere / downward view
0
0
0
0
Fix
 
0
0.2
0
0
0
 
 
 
0
 
0
319.2
0
Front
50
 
S:100 R:100
 
0
0
0
 
0
 
 
 
0
 
 
0
0
0
0
0
 
 
 
 
0
0


#HDR
-1
-1
#GR
nm
A
1.0
0.0
800.000000
-1.000000
501
8
0.099851
-0.015609
#DATA
800.000000	-0.013359
799.000000	-0.014310
798.000000	-0.014723
797.000000	-0.013028
796.000000	-0.014312
795.000000	-0.015609
794.000000	-0.014444
793.000000	-0.014508
792.000000	-0.014476
791.000000	-0.013608
790.000000	-0.013395
789.000000	-0.013269
788.000000	-0.013071
787.000000	-0.013596
786.000000	-0.014607
785.000000	-0.014895
784.000000	-0.012800
783.000000	-0.014290
782.000000	-0.012779
781.000000	-0.013012
780.000000	-0.014475
779.000000	-0.014294
778.000000	-0.013400
777.000000	-0.014232
776.000000	-0.013131
775.000000	-0.012765
774.000000	-0.013858
773.000000	-0.013858
772.000000	-0.013551
771.000000	-0.013852
770.000000	-0.013567
769.000000	-0.013224
768.000000	-0.013286
767.000000	-0.013353
766.000000	-0.013244
765.000000	-0.013243
764.000000	-0.014644
763.000000	-0.012606
762.000000	-0.013772
761.000000	-0.014314
760.000000	-0.014365
759.000000	-0.014284
758.000000	-0.014100
757.000000	-0.013757
756.000000	-0.014646
755.000000	-0.012352
754.000000	-0.012906
753.000000	-0.014179
752.000000	-0.014874
751.000000	-0.014930
750.000000	-0.013492
749.000000	-0.012559
748.000000	-0.012235
747.000000	-0.013630
746.000000	-0.014024
745.000000	-0.014367
744.000000	-0.014239
743.000000	-0.013520
742.000000	-0.014367
741.000000	-0.014542
740.000000	-0.013569
739.000000	-0.014350
738.000000	-0.014141
737.000000	-0.014759
736.000000	-0.013574
735.000000	-0.013329
734.000000	-0.013804
733.000000	-0.014088
732.000000	-0.014770
731.000000	-0.014895
730.000000	-0.015035
729.000000	-0.014297
728.000000	-0.014615
727.000000	-0.014503
726.000000	-0.013965
725.000000	-0.014225
724.000000	-0.014335
723.000000	-0.014411
722.000000	-0.013862
721.000000	-0.013833
720.000000	-0.014288
719.000000	-0.013848
718.000000	-0.013882
717.000000	-0.013945
716.000000	-0.013626
715.000000	-0.013337
714.000000	-0.013265
713.000000	-0.012844
712.000000	-0.011633
711.000000	-0.011632
710.000000	-0.011540
709.000000	-0.010841
708.000000	-0.010042
707.000000	-0.009565
706.000000	-0.008330
705.000000	-0.008152
704.000000	-0.006802
703.000000	-0.005708
702.000000	-0.004402
701.000000	-0.002258
700.000000	-0.000377
699.000000	0.002020
698.000000	0.004922
697.000000	0.007998
696.000000	0.011446
695.000000	0.015055
694.000000	0.019055
693.000000	0.023351
692.000000	0.028097
691.000000	0.032802
690.000000	0.037899
689.000000	0.042517
688.000000	0.046950
687.000000	0.050927
686.000000	0.054628
685.000000	0.058545
684.000000	0.061358
683.000000	0.063429
682.000000	0.065787
681.000000	0.067847
680.000000	0.069095
679.000000	0.070441
678.000000	0.072143
677.000000	0.073154
676.000000	0.074060
675.000000	0.074541
674.000000	0.074398
673.000000	0.074087
672.000000	0.073250
671.000000	0.072410
670.000000	0.070857
669.000000	0.068936
668.000000	0.066980
667.000000	0.064100
666.000000	0.061308
665.000000	0.057938
664.000000	0.054286
663.000000	0.051362
662.000000	0.047958
661.000000	0.044346
660.000000	0.040913
659.000000	0.037377
658.000000	0.034389
657.000000	0.031006
656.000000	0.027998
655.000000	0.025688
654.000000	0.023237
653.000000	0.021190
652.000000	0.019811
651.000000	0.018356
650.000000	0.017304
649.000000	0.016966
648.000000	0.016259
647.000000	0.015719
646.000000	0.015812
645.000000	0.015788
644.000000	0.016262
643.000000	0.017089
642.000000	0.017380
641.000000	0.017438
640.000000	0.018438
639.000000	0.018853
638.000000	0.018999
637.000000	0.020015
636.000000	0.020000
635.000000	0.020079
634.000000	0.020334
633.000000	0.020440
632.000000	0.020437
631.000000	0.020470
630.000000	0.020857
629.000000	0.020286
628.000000	0.019702
627.000000	0.019798
626.000000	0.019566
625.000000	0.019643
624.000000	0.019236
623.000000	0.018886
622.000000	0.018902
621.000000	0.018656
620.000000	0.018309
619.000000	0.017680
618.000000	0.017311
617.000000	0.016923
616.000000	0.016490
615.000000	0.015325
614.000000	0.014693
613.000000	0.014381
612.000000	0.013434
611.000000	0.012572
610.000000	0.012577
609.000000	0.011323
608.000000	0.010752
607.000000	0.009757
606.000000	0.009434
605.000000	0.009120
604.000000	0.008409
603.000000	0.008105
602.000000	0.007578
601.000000	0.007691
600.000000	0.007534
599.000000	0.007755
598.000000	0.007340
597.000000	0.007551
596.000000	0.008073
595.000000	0.007977
594.000000	0.007905
593.000000	0.008136
592.000000	0.008775
591.000000	0.009068
590.000000	0.009248
589.000000	0.009054
588.000000	0.009273
587.000000	0.009418
586.000000	0.009128
585.000000	0.009779
584.000000	0.009889
583.000000	0.009506
582.000000	0.008806
581.000000	0.008988
580.000000	0.009431
579.000000	0.008801
578.000000	0.008956
577.000000	0.009084
576.000000	0.008813
575.000000	0.008910
574.000000	0.009024
573.000000	0.009008
572.000000	0.009079
571.000000	0.008674
570.000000	0.009080
569.000000	0.009179
568.000000	0.009520
567.000000	0.009303
566.000000	0.010058
565.000000	0.010721
564.000000	0.011487
563.000000	0.011256
562.000000	0.011818
561.000000	0.013060
560.000000	0.013648
559.000000	0.014484
558.000000	0.015220
557.000000	0.016501
556.000000	0.016635
555.000000	0.017318
554.000000	0.018310
553.000000	0.019342
552.000000	0.019764
551.000000	0.021410
550.000000	0.021706
549.000000	0.022585
548.000000	0.023683
547.000000	0.024001
546.000000	0.025289
545.000000	0.025971
544.000000	0.026899
543.000000	0.027188
542.000000	0.028076
541.000000	0.028473
540.000000	0.029474
539.000000	0.030166
538.000000	0.030703
537.000000	0.031442
536.000000	0.032014
535.000000	0.032252
534.000000	0.033314
533.000000	0.033559
532.000000	0.034146
531.000000	0.034567
530.000000	0.034997
529.000000	0.035325
528.000000	0.036099
527.000000	0.036907
526.000000	0.037502
525.000000	0.037750
524.000000	0.038580
523.000000	0.038376
522.000000	0.039350
521.000000	0.040051
520.000000	0.040929
519.000000	0.041066
518.000000	0.041792
517.000000	0.042542
516.000000	0.043769
515.000000	0.044121
514.000000	0.045460
513.000000	0.046296
512.000000	0.047266
511.000000	0.047309
510.000000	0.048585
509.000000	0.049695
508.000000	0.051137
507.000000	0.052519
506.000000	0.053411
505.000000	0.054668
504.000000	0.055856
503.000000	0.056636
502.000000	0.057698
501.000000	0.059043
500.000000	0.060421
499.000000	0.061252
498.000000	0.062286
497.000000	0.063030
496.000000	0.064403
495.000000	0.064780
494.000000	0.064756
493.000000	0.065616
492.000000	0.066707
491.000000	0.066091
490.000000	0.065983
489.000000	0.066705
488.000000	0.066050
487.000000	0.066154
486.000000	0.066158
485.000000	0.065701
484.000000	0.065167
483.000000	0.065393
482.000000	0.065715
481.000000	0.065226
480.000000	0.065183
479.000000	0.064801
478.000000	0.065414
477.000000	0.065652
476.000000	0.066194
475.000000	0.067226
474.000000	0.068242
473.000000	0.069114
472.000000	0.069399
471.000000	0.070298
470.000000	0.071607
469.000000	0.073031
468.000000	0.074313
467.000000	0.075475
466.000000	0.076337
465.000000	0.077323
464.000000	0.078200
463.000000	0.078842
462.000000	0.079227
461.000000	0.080586
460.000000	0.081745
459.000000	0.082112
458.000000	0.082328
457.000000	0.082729
456.000000	0.083726
455.000000	0.084337
454.000000	0.085702
453.000000	0.086120
452.000000	0.087060
451.000000	0.087889
450.000000	0.088886
449.000000	0.089719
448.000000	0.091401
447.000000	0.093470
446.000000	0.094245
445.000000	0.094986
444.000000	0.096435
443.000000	0.098045
442.000000	0.098532
441.000000	0.098961
440.000000	0.099146
439.000000	0.099090
438.000000	0.099851
437.000000	0.099812
436.000000	0.099182
435.000000	0.099081
434.000000	0.099203
433.000000	0.098543
432.000000	0.097739
431.000000	0.097421
430.000000	0.097180
429.000000	0.096441
428.000000	0.095506
427.000000	0.094338
426.000000	0.094131
425.000000	0.094207
424.000000	0.093577
423.000000	0.093618
422.000000	0.093633
421.000000	0.092930
420.000000	0.092410
419.000000	0.091966
418.000000	0.092113
417.000000	0.091970
416.000000	0.091038
415.000000	0.091005
414.000000	0.090070
413.000000	0.088732
412.000000	0.087829
411.000000	0.086992
410.000000	0.086059
409.000000	0.085196
408.000000	0.084313
407.000000	0.082549
406.000000	0.080969
405.000000	0.080264
404.000000	0.079299
403.000000	0.077729
402.000000	0.076608
401.000000	0.075976
400.000000	0.075034
399.000000	0.074413
398.000000	0.074070
397.000000	0.073511
396.000000	0.072638
395.000000	0.071871
394.000000	0.071380
393.000000	0.070744
392.000000	0.069917
391.000000	0.070373
390.000000	0.069535
389.000000	0.068810
388.000000	0.068751
387.000000	0.068348
386.000000	0.067604
385.000000	0.066814
384.000000	0.066667
383.000000	0.066085
382.000000	0.066191
381.000000	0.065705
380.000000	0.064001
379.000000	0.062525
378.000000	0.061861
377.000000	0.059084
376.000000	0.057692
375.000000	0.057851
374.000000	0.055334
373.000000	0.053301
372.000000	0.053886
371.000000	0.051634
370.000000	0.049085
369.000000	0.051129
368.000000	0.051086
367.000000	0.049477
366.000000	0.048675
365.000000	0.048527
364.000000	0.048278
363.000000	0.048045
362.000000	0.046086
361.000000	0.046440
360.000000	0.043785
359.000000	0.045603
358.000000	0.044647
357.000000	0.042431
356.000000	0.044694
355.000000	0.043159
354.000000	0.041451
353.000000	0.041632
352.000000	0.041916
351.000000	0.042215
350.000000	0.039479
349.000000	0.041493
348.000000	0.042567
347.000000	0.044143
346.000000	0.043667
345.000000	0.044233
344.000000	0.045139
343.000000	0.045707
342.000000	0.046113
341.000000	0.043736
340.000000	0.047547
339.000000	0.047075
338.000000	0.046925
337.000000	0.046803
336.000000	0.047696
335.000000	0.048124
334.000000	0.045555
333.000000	0.045501
332.000000	0.045676
331.000000	0.046654
330.000000	0.048859
329.000000	0.045142
328.000000	0.043664
327.000000	0.047467
326.000000	0.047193
325.000000	0.043447
324.000000	0.043264
323.000000	0.046378
322.000000	0.045762
321.000000	0.045468
320.000000	0.047368
319.000000	0.043154
318.000000	0.042194
317.000000	0.045140
316.000000	0.047243
315.000000	0.045945
314.000000	0.045659
313.000000	0.048093
312.000000	0.047873
311.000000	0.048086
310.000000	0.050479
309.000000	0.052843
308.000000	0.056353
307.000000	0.056264
306.000000	0.059303
305.000000	0.062109
304.000000	0.065286
303.000000	0.063904
302.000000	0.069422
301.000000	0.072969
300.000000	0.074190
