PE UV       SUBTECH     SPECTRUM    ASCII       PEDS        4.00        
   -1
PETIT_31.Sample.Raw.asc
20/12/15
09:43:50.00
20/12/15
09:43:50.00
CNRS
RCC0156_A_D2
300.000000
1
Lambda 850
850L1011221
PerkinElmer UV WinLab 6.0.3.0730 / 1.61.00 Lambda 800

0
0
2
0
0
UV/VIS
1
1
1
RBeamAtt,SBeamAtt,150mm sphere / downward view
0
0
0
0
Fix
 
0
0.2
0
0
0
 
 
 
0
 
0
319.2
0
Front
50
 
S:100 R:100
 
0
0
0
 
0
 
 
 
0
 
 
0
0
0
0
0
 
 
 
 
0
0


#HDR
-1
-1
#GR
nm
A
1.0
0.0
800.000000
-1.000000
501
8
0.234660
-0.014010
#DATA
800.000000	-0.011551
799.000000	-0.011510
798.000000	-0.012749
797.000000	-0.011218
796.000000	-0.012657
795.000000	-0.014010
794.000000	-0.013135
793.000000	-0.013997
792.000000	-0.012515
791.000000	-0.012682
790.000000	-0.012160
789.000000	-0.012919
788.000000	-0.012227
787.000000	-0.011743
786.000000	-0.012028
785.000000	-0.011754
784.000000	-0.011722
783.000000	-0.012581
782.000000	-0.011612
781.000000	-0.011720
780.000000	-0.012768
779.000000	-0.012307
778.000000	-0.011798
777.000000	-0.012509
776.000000	-0.012615
775.000000	-0.012289
774.000000	-0.011932
773.000000	-0.013330
772.000000	-0.012651
771.000000	-0.012299
770.000000	-0.013162
769.000000	-0.011615
768.000000	-0.013009
767.000000	-0.012761
766.000000	-0.013438
765.000000	-0.013156
764.000000	-0.012818
763.000000	-0.012754
762.000000	-0.012243
761.000000	-0.012997
760.000000	-0.013145
759.000000	-0.012728
758.000000	-0.012895
757.000000	-0.012957
756.000000	-0.013078
755.000000	-0.011439
754.000000	-0.012989
753.000000	-0.013238
752.000000	-0.013146
751.000000	-0.013134
750.000000	-0.012239
749.000000	-0.011593
748.000000	-0.011731
747.000000	-0.012344
746.000000	-0.012951
745.000000	-0.012543
744.000000	-0.013062
743.000000	-0.012880
742.000000	-0.012926
741.000000	-0.013251
740.000000	-0.012038
739.000000	-0.012724
738.000000	-0.012825
737.000000	-0.013127
736.000000	-0.012451
735.000000	-0.012510
734.000000	-0.012509
733.000000	-0.013114
732.000000	-0.013421
731.000000	-0.013027
730.000000	-0.013061
729.000000	-0.013149
728.000000	-0.012724
727.000000	-0.013234
726.000000	-0.013092
725.000000	-0.012833
724.000000	-0.012931
723.000000	-0.013478
722.000000	-0.012865
721.000000	-0.013138
720.000000	-0.013461
719.000000	-0.013306
718.000000	-0.013409
717.000000	-0.013431
716.000000	-0.012984
715.000000	-0.012728
714.000000	-0.012279
713.000000	-0.012806
712.000000	-0.012504
711.000000	-0.012463
710.000000	-0.012317
709.000000	-0.012290
708.000000	-0.011919
707.000000	-0.010913
706.000000	-0.010510
705.000000	-0.010606
704.000000	-0.010338
703.000000	-0.009709
702.000000	-0.009217
701.000000	-0.008089
700.000000	-0.007621
699.000000	-0.006534
698.000000	-0.005191
697.000000	-0.003696
696.000000	-0.002239
695.000000	-0.000568
694.000000	0.001662
693.000000	0.004012
692.000000	0.006879
691.000000	0.009935
690.000000	0.013291
689.000000	0.016840
688.000000	0.020617
687.000000	0.024631
686.000000	0.028750
685.000000	0.033019
684.000000	0.036703
683.000000	0.039723
682.000000	0.042699
681.000000	0.045389
680.000000	0.047845
679.000000	0.050571
678.000000	0.052998
677.000000	0.054351
676.000000	0.055348
675.000000	0.056481
674.000000	0.056865
673.000000	0.056446
672.000000	0.055941
671.000000	0.054916
670.000000	0.053177
669.000000	0.051234
668.000000	0.049502
667.000000	0.047265
666.000000	0.044238
665.000000	0.041006
664.000000	0.038152
663.000000	0.035858
662.000000	0.033504
661.000000	0.031110
660.000000	0.029069
659.000000	0.027542
658.000000	0.026514
657.000000	0.025018
656.000000	0.023417
655.000000	0.022596
654.000000	0.021844
653.000000	0.021094
652.000000	0.020238
651.000000	0.019435
650.000000	0.018560
649.000000	0.017864
648.000000	0.017406
647.000000	0.016553
646.000000	0.015630
645.000000	0.014756
644.000000	0.013994
643.000000	0.013212
642.000000	0.012166
641.000000	0.011264
640.000000	0.010969
639.000000	0.010252
638.000000	0.009432
637.000000	0.009404
636.000000	0.009276
635.000000	0.009024
634.000000	0.008439
633.000000	0.008657
632.000000	0.008362
631.000000	0.007871
630.000000	0.008186
629.000000	0.007741
628.000000	0.007481
627.000000	0.007285
626.000000	0.006919
625.000000	0.006770
624.000000	0.006543
623.000000	0.006008
622.000000	0.005973
621.000000	0.005884
620.000000	0.005748
619.000000	0.005294
618.000000	0.005176
617.000000	0.005112
616.000000	0.004599
615.000000	0.004126
614.000000	0.003947
613.000000	0.004331
612.000000	0.004351
611.000000	0.003934
610.000000	0.004190
609.000000	0.003640
608.000000	0.003556
607.000000	0.002928
606.000000	0.003400
605.000000	0.003402
604.000000	0.002960
603.000000	0.002979
602.000000	0.002442
601.000000	0.002664
600.000000	0.002325
599.000000	0.002533
598.000000	0.001862
597.000000	0.001811
596.000000	0.002227
595.000000	0.002010
594.000000	0.001714
593.000000	0.001402
592.000000	0.001369
591.000000	0.001834
590.000000	0.001596
589.000000	0.001010
588.000000	0.001164
587.000000	0.000946
586.000000	0.000435
585.000000	0.000868
584.000000	0.000331
583.000000	0.000141
582.000000	-0.000406
581.000000	-0.000628
580.000000	0.000117
579.000000	-0.000221
578.000000	-0.000449
577.000000	-0.000331
576.000000	-0.000880
575.000000	-0.000065
574.000000	-0.000436
573.000000	-0.000679
572.000000	-0.000902
571.000000	-0.000746
570.000000	-0.000665
569.000000	-0.000615
568.000000	-0.000512
567.000000	-0.000394
566.000000	-0.000406
565.000000	-0.000077
564.000000	0.000505
563.000000	0.000526
562.000000	0.000580
561.000000	0.000975
560.000000	0.001337
559.000000	0.001626
558.000000	0.002023
557.000000	0.003013
556.000000	0.003069
555.000000	0.003303
554.000000	0.003861
553.000000	0.004710
552.000000	0.004782
551.000000	0.006077
550.000000	0.005739
549.000000	0.007268
548.000000	0.007065
547.000000	0.008237
546.000000	0.008972
545.000000	0.009691
544.000000	0.010704
543.000000	0.011421
542.000000	0.011962
541.000000	0.013219
540.000000	0.013781
539.000000	0.015068
538.000000	0.016125
537.000000	0.017066
536.000000	0.018258
535.000000	0.019456
534.000000	0.021124
533.000000	0.022178
532.000000	0.023680
531.000000	0.025121
530.000000	0.026472
529.000000	0.028180
528.000000	0.030117
527.000000	0.032485
526.000000	0.035334
525.000000	0.037122
524.000000	0.039774
523.000000	0.041712
522.000000	0.044715
521.000000	0.047581
520.000000	0.050364
519.000000	0.053580
518.000000	0.056895
517.000000	0.060637
516.000000	0.064586
515.000000	0.068456
514.000000	0.072794
513.000000	0.076758
512.000000	0.080693
511.000000	0.085369
510.000000	0.089048
509.000000	0.093533
508.000000	0.098363
507.000000	0.102927
506.000000	0.106845
505.000000	0.111743
504.000000	0.115261
503.000000	0.119474
502.000000	0.123384
501.000000	0.127133
500.000000	0.130694
499.000000	0.133358
498.000000	0.136751
497.000000	0.140092
496.000000	0.143458
495.000000	0.145128
494.000000	0.147858
493.000000	0.150581
492.000000	0.152799
491.000000	0.154912
490.000000	0.156945
489.000000	0.159047
488.000000	0.160270
487.000000	0.162088
486.000000	0.163850
485.000000	0.165729
484.000000	0.167354
483.000000	0.168509
482.000000	0.170604
481.000000	0.171967
480.000000	0.173689
479.000000	0.175508
478.000000	0.177184
477.000000	0.179149
476.000000	0.181594
475.000000	0.183677
474.000000	0.186065
473.000000	0.188346
472.000000	0.190616
471.000000	0.192640
470.000000	0.195772
469.000000	0.198623
468.000000	0.200563
467.000000	0.203400
466.000000	0.205737
465.000000	0.207761
464.000000	0.209970
463.000000	0.211712
462.000000	0.213517
461.000000	0.216073
460.000000	0.218111
459.000000	0.220015
458.000000	0.221807
457.000000	0.223408
456.000000	0.224995
455.000000	0.226509
454.000000	0.228074
453.000000	0.229603
452.000000	0.230553
451.000000	0.231401
450.000000	0.232311
449.000000	0.233123
448.000000	0.234161
447.000000	0.234660
446.000000	0.234446
445.000000	0.234554
444.000000	0.234350
443.000000	0.234588
442.000000	0.234331
441.000000	0.233307
440.000000	0.231993
439.000000	0.231306
438.000000	0.231034
437.000000	0.230671
436.000000	0.229214
435.000000	0.228403
434.000000	0.228416
433.000000	0.227932
432.000000	0.227518
431.000000	0.227147
430.000000	0.226648
429.000000	0.225558
428.000000	0.225037
427.000000	0.224308
426.000000	0.223089
425.000000	0.222102
424.000000	0.221152
423.000000	0.220474
422.000000	0.219574
421.000000	0.218061
420.000000	0.216611
419.000000	0.215645
418.000000	0.214814
417.000000	0.213859
416.000000	0.212795
415.000000	0.212269
414.000000	0.211380
413.000000	0.210146
412.000000	0.209133
411.000000	0.208659
410.000000	0.208624
409.000000	0.207770
408.000000	0.207530
407.000000	0.207593
406.000000	0.207337
405.000000	0.207398
404.000000	0.207575
403.000000	0.207590
402.000000	0.207568
401.000000	0.208120
400.000000	0.208147
399.000000	0.209096
398.000000	0.210324
397.000000	0.210300
396.000000	0.210839
395.000000	0.210725
394.000000	0.211599
393.000000	0.212141
392.000000	0.211714
391.000000	0.212334
390.000000	0.212039
389.000000	0.211297
388.000000	0.211339
387.000000	0.210788
386.000000	0.209317
385.000000	0.208168
384.000000	0.206062
383.000000	0.203846
382.000000	0.202637
381.000000	0.200304
380.000000	0.196247
379.000000	0.194060
378.000000	0.186226
377.000000	0.180890
376.000000	0.178513
375.000000	0.175543
374.000000	0.171477
373.000000	0.171054
372.000000	0.168490
371.000000	0.165219
370.000000	0.163293
369.000000	0.162941
368.000000	0.161557
367.000000	0.160175
366.000000	0.158094
365.000000	0.157018
364.000000	0.155415
363.000000	0.156056
362.000000	0.153897
361.000000	0.152578
360.000000	0.152803
359.000000	0.152778
358.000000	0.152552
357.000000	0.151220
356.000000	0.153122
355.000000	0.152474
354.000000	0.151881
353.000000	0.153258
352.000000	0.153233
351.000000	0.152375
350.000000	0.151216
349.000000	0.152951
348.000000	0.154873
347.000000	0.156774
346.000000	0.156419
345.000000	0.155758
344.000000	0.158997
343.000000	0.158994
342.000000	0.159183
341.000000	0.157452
340.000000	0.160267
339.000000	0.159183
338.000000	0.158779
337.000000	0.159073
336.000000	0.160557
335.000000	0.161670
334.000000	0.160881
333.000000	0.161993
332.000000	0.160806
331.000000	0.163106
330.000000	0.162133
329.000000	0.165389
328.000000	0.160293
327.000000	0.161612
326.000000	0.163951
325.000000	0.165523
324.000000	0.162695
323.000000	0.168251
322.000000	0.168306
321.000000	0.167396
320.000000	0.169368
319.000000	0.168516
318.000000	0.167633
317.000000	0.168404
316.000000	0.172645
315.000000	0.171732
314.000000	0.173604
313.000000	0.175245
312.000000	0.176305
311.000000	0.176883
310.000000	0.181434
309.000000	0.181744
308.000000	0.186958
307.000000	0.188160
306.000000	0.189510
305.000000	0.194837
304.000000	0.198343
303.000000	0.197762
302.000000	0.205725
301.000000	0.208529
300.000000	0.210993
