PE UV       SUBTECH     SPECTRUM    ASCII       PEDS        4.00        
   -1
PETIT_49.Sample.Raw.asc
20/12/15
11:19:33.00
20/12/15
11:19:33.00
CNRS
RCC9511_1717_C
300.000000
1
Lambda 850
850L1011221
PerkinElmer UV WinLab 6.0.3.0730 / 1.61.00 Lambda 800

0
0
2
0
0
UV/VIS
1
1
1
RBeamAtt,SBeamAtt,150mm sphere / downward view
0
0
0
0
Fix
 
0
0.2
0
0
0
 
 
 
0
 
0
319.2
0
Front
50
 
S:100 R:100
 
0
0
0
 
0
 
 
 
0
 
 
0
0
0
0
0
 
 
 
 
0
0


#HDR
-1
-1
#GR
nm
A
1.0
0.0
800.000000
-1.000000
501
8
0.362036
-0.013492
#DATA
800.000000	-0.011340
799.000000	-0.011050
798.000000	-0.012773
797.000000	-0.011742
796.000000	-0.012406
795.000000	-0.013421
794.000000	-0.011810
793.000000	-0.012339
792.000000	-0.012228
791.000000	-0.011942
790.000000	-0.012435
789.000000	-0.012270
788.000000	-0.012707
787.000000	-0.011558
786.000000	-0.012065
785.000000	-0.013492
784.000000	-0.011989
783.000000	-0.011744
782.000000	-0.010800
781.000000	-0.011434
780.000000	-0.012463
779.000000	-0.012345
778.000000	-0.011760
777.000000	-0.011462
776.000000	-0.010456
775.000000	-0.011172
774.000000	-0.010781
773.000000	-0.011444
772.000000	-0.011944
771.000000	-0.012328
770.000000	-0.011717
769.000000	-0.010970
768.000000	-0.011824
767.000000	-0.012216
766.000000	-0.011452
765.000000	-0.011348
764.000000	-0.011584
763.000000	-0.010603
762.000000	-0.012003
761.000000	-0.011250
760.000000	-0.011597
759.000000	-0.011694
758.000000	-0.012335
757.000000	-0.010891
756.000000	-0.012345
755.000000	-0.010916
754.000000	-0.011286
753.000000	-0.012594
752.000000	-0.012210
751.000000	-0.012567
750.000000	-0.011053
749.000000	-0.009875
748.000000	-0.010350
747.000000	-0.010683
746.000000	-0.011213
745.000000	-0.010119
744.000000	-0.010889
743.000000	-0.010168
742.000000	-0.010008
741.000000	-0.010669
740.000000	-0.009947
739.000000	-0.010010
738.000000	-0.009244
737.000000	-0.009724
736.000000	-0.008886
735.000000	-0.008916
734.000000	-0.008621
733.000000	-0.008732
732.000000	-0.009189
731.000000	-0.008150
730.000000	-0.007817
729.000000	-0.007195
728.000000	-0.005752
727.000000	-0.005166
726.000000	-0.004770
725.000000	-0.003421
724.000000	-0.001940
723.000000	-0.001476
722.000000	0.000404
721.000000	0.002294
720.000000	0.004234
719.000000	0.007234
718.000000	0.010065
717.000000	0.013142
716.000000	0.017095
715.000000	0.021642
714.000000	0.025599
713.000000	0.028654
712.000000	0.033494
711.000000	0.037821
710.000000	0.041494
709.000000	0.045965
708.000000	0.049798
707.000000	0.053490
706.000000	0.057716
705.000000	0.061458
704.000000	0.065738
703.000000	0.069994
702.000000	0.075025
701.000000	0.079957
700.000000	0.085544
699.000000	0.091210
698.000000	0.097474
697.000000	0.103715
696.000000	0.110043
695.000000	0.117269
694.000000	0.124744
693.000000	0.131802
692.000000	0.139631
691.000000	0.147505
690.000000	0.155347
689.000000	0.162954
688.000000	0.170404
687.000000	0.177409
686.000000	0.184812
685.000000	0.192319
684.000000	0.198433
683.000000	0.204435
682.000000	0.210258
681.000000	0.214796
680.000000	0.218870
679.000000	0.222490
678.000000	0.226000
677.000000	0.228336
676.000000	0.229955
675.000000	0.230700
674.000000	0.229753
673.000000	0.228198
672.000000	0.225955
671.000000	0.222243
670.000000	0.217355
669.000000	0.210840
668.000000	0.203791
667.000000	0.196019
666.000000	0.187204
665.000000	0.178066
664.000000	0.168789
663.000000	0.160278
662.000000	0.152301
661.000000	0.144057
660.000000	0.136620
659.000000	0.130270
658.000000	0.124213
657.000000	0.118239
656.000000	0.113224
655.000000	0.109275
654.000000	0.105913
653.000000	0.102637
652.000000	0.099765
651.000000	0.097572
650.000000	0.096150
649.000000	0.095191
648.000000	0.094187
647.000000	0.093811
646.000000	0.093466
645.000000	0.092865
644.000000	0.093165
643.000000	0.093550
642.000000	0.093541
641.000000	0.093674
640.000000	0.094268
639.000000	0.094073
638.000000	0.093698
637.000000	0.094076
636.000000	0.094361
635.000000	0.093907
634.000000	0.093255
633.000000	0.092990
632.000000	0.092371
631.000000	0.091692
630.000000	0.090791
629.000000	0.089453
628.000000	0.088360
627.000000	0.087933
626.000000	0.087113
625.000000	0.086424
624.000000	0.085832
623.000000	0.084948
622.000000	0.084213
621.000000	0.083145
620.000000	0.082068
619.000000	0.080699
618.000000	0.079432
617.000000	0.078474
616.000000	0.076996
615.000000	0.074898
614.000000	0.073171
613.000000	0.071986
612.000000	0.071004
611.000000	0.069081
610.000000	0.067885
609.000000	0.066221
608.000000	0.065334
607.000000	0.063305
606.000000	0.062877
605.000000	0.062544
604.000000	0.061420
603.000000	0.061399
602.000000	0.060613
601.000000	0.060611
600.000000	0.060643
599.000000	0.061349
598.000000	0.060951
597.000000	0.061317
596.000000	0.061984
595.000000	0.062956
594.000000	0.063103
593.000000	0.063532
592.000000	0.064219
591.000000	0.064729
590.000000	0.064648
589.000000	0.064062
588.000000	0.064248
587.000000	0.064447
586.000000	0.063933
585.000000	0.064156
584.000000	0.064028
583.000000	0.062974
582.000000	0.062549
581.000000	0.062345
580.000000	0.062487
579.000000	0.061805
578.000000	0.061632
577.000000	0.061675
576.000000	0.061248
575.000000	0.061460
574.000000	0.061453
573.000000	0.061557
572.000000	0.061901
571.000000	0.061157
570.000000	0.061813
569.000000	0.062143
568.000000	0.063080
567.000000	0.062776
566.000000	0.064050
565.000000	0.064775
564.000000	0.066085
563.000000	0.066772
562.000000	0.067652
561.000000	0.069559
560.000000	0.071029
559.000000	0.071533
558.000000	0.073367
557.000000	0.075515
556.000000	0.076270
555.000000	0.077722
554.000000	0.078915
553.000000	0.081061
552.000000	0.081230
551.000000	0.083614
550.000000	0.084232
549.000000	0.085581
548.000000	0.087163
547.000000	0.088032
546.000000	0.089285
545.000000	0.090237
544.000000	0.091943
543.000000	0.092943
542.000000	0.093822
541.000000	0.095310
540.000000	0.095977
539.000000	0.097738
538.000000	0.098980
537.000000	0.100112
536.000000	0.101489
535.000000	0.103059
534.000000	0.104663
533.000000	0.106252
532.000000	0.108168
531.000000	0.109261
530.000000	0.111690
529.000000	0.113154
528.000000	0.115061
527.000000	0.117158
526.000000	0.119878
525.000000	0.121753
524.000000	0.123895
523.000000	0.125655
522.000000	0.128028
521.000000	0.130326
520.000000	0.133086
519.000000	0.135747
518.000000	0.138202
517.000000	0.141051
516.000000	0.144097
515.000000	0.146880
514.000000	0.150257
513.000000	0.153834
512.000000	0.157240
511.000000	0.160654
510.000000	0.163914
509.000000	0.167943
508.000000	0.171979
507.000000	0.176281
506.000000	0.180771
505.000000	0.184573
504.000000	0.188399
503.000000	0.192825
502.000000	0.197985
501.000000	0.201891
500.000000	0.206155
499.000000	0.209414
498.000000	0.213433
497.000000	0.216842
496.000000	0.220546
495.000000	0.222613
494.000000	0.225092
493.000000	0.228338
492.000000	0.230672
491.000000	0.232244
490.000000	0.233699
489.000000	0.235983
488.000000	0.237020
487.000000	0.238326
486.000000	0.239641
485.000000	0.241476
484.000000	0.243082
483.000000	0.244545
482.000000	0.246929
481.000000	0.248304
480.000000	0.250716
479.000000	0.253189
478.000000	0.256386
477.000000	0.259799
476.000000	0.264016
475.000000	0.268254
474.000000	0.272517
473.000000	0.277208
472.000000	0.281191
471.000000	0.285455
470.000000	0.290337
469.000000	0.294965
468.000000	0.299606
467.000000	0.303508
466.000000	0.307136
465.000000	0.309580
464.000000	0.312758
463.000000	0.315415
462.000000	0.317444
461.000000	0.319323
460.000000	0.320302
459.000000	0.321563
458.000000	0.322444
457.000000	0.323301
456.000000	0.324231
455.000000	0.325244
454.000000	0.326978
453.000000	0.327968
452.000000	0.330236
451.000000	0.331998
450.000000	0.334181
449.000000	0.336376
448.000000	0.339953
447.000000	0.344151
446.000000	0.347428
445.000000	0.349675
444.000000	0.352485
443.000000	0.355843
442.000000	0.358260
441.000000	0.359427
440.000000	0.360273
439.000000	0.360570
438.000000	0.361622
437.000000	0.362036
436.000000	0.361678
435.000000	0.361429
434.000000	0.360802
433.000000	0.359873
432.000000	0.358216
431.000000	0.357017
430.000000	0.355953
429.000000	0.354627
428.000000	0.352959
427.000000	0.350521
426.000000	0.349439
425.000000	0.348701
424.000000	0.347494
423.000000	0.347134
422.000000	0.346904
421.000000	0.346299
420.000000	0.346044
419.000000	0.346691
418.000000	0.346660
417.000000	0.346218
416.000000	0.346076
415.000000	0.346702
414.000000	0.346196
413.000000	0.345385
412.000000	0.344857
411.000000	0.344070
410.000000	0.342765
409.000000	0.341497
408.000000	0.340184
407.000000	0.337967
406.000000	0.335195
405.000000	0.333572
404.000000	0.332106
403.000000	0.329709
402.000000	0.327622
401.000000	0.326011
400.000000	0.323547
399.000000	0.321388
398.000000	0.320275
397.000000	0.319358
396.000000	0.318045
395.000000	0.316513
394.000000	0.316078
393.000000	0.315936
392.000000	0.315415
391.000000	0.315163
390.000000	0.314776
389.000000	0.313792
388.000000	0.312311
387.000000	0.310934
386.000000	0.309587
385.000000	0.308126
384.000000	0.305896
383.000000	0.304617
382.000000	0.303129
381.000000	0.300293
380.000000	0.297656
379.000000	0.294397
378.000000	0.279759
377.000000	0.273025
376.000000	0.271153
375.000000	0.270785
374.000000	0.268077
373.000000	0.264639
372.000000	0.262285
371.000000	0.260850
370.000000	0.257561
369.000000	0.256708
368.000000	0.255188
367.000000	0.253266
366.000000	0.251670
365.000000	0.249842
364.000000	0.247612
363.000000	0.245405
362.000000	0.241465
361.000000	0.238946
360.000000	0.237801
359.000000	0.235355
358.000000	0.233894
357.000000	0.230626
356.000000	0.229748
355.000000	0.228431
354.000000	0.227037
353.000000	0.226584
352.000000	0.226799
351.000000	0.224978
350.000000	0.224250
349.000000	0.224686
348.000000	0.224228
347.000000	0.226210
346.000000	0.225680
345.000000	0.225906
344.000000	0.225614
343.000000	0.225014
342.000000	0.226457
341.000000	0.225836
340.000000	0.229136
339.000000	0.225922
338.000000	0.227248
337.000000	0.225176
336.000000	0.226960
335.000000	0.228141
334.000000	0.225344
333.000000	0.224516
332.000000	0.224135
331.000000	0.226566
330.000000	0.224421
329.000000	0.222369
328.000000	0.222985
327.000000	0.225691
326.000000	0.223064
325.000000	0.223687
324.000000	0.221792
323.000000	0.222532
322.000000	0.223823
321.000000	0.222580
320.000000	0.220794
319.000000	0.218178
318.000000	0.223203
317.000000	0.221164
316.000000	0.222519
315.000000	0.220119
314.000000	0.218629
313.000000	0.220237
312.000000	0.221643
311.000000	0.219885
310.000000	0.221120
309.000000	0.223489
308.000000	0.226088
307.000000	0.227279
306.000000	0.229213
305.000000	0.232689
304.000000	0.236288
303.000000	0.237789
302.000000	0.242159
301.000000	0.249015
300.000000	0.254474
