PE UV       SUBTECH     SPECTRUM    ASCII       PEDS        4.00        
   -1
PETIT-57.Sample.Raw.asc
20/12/15
12:15:08.00
20/12/15
12:15:08.00
CNRS
Zeroair2
300.000000
1
Lambda 850
850L1011221
PerkinElmer UV WinLab 6.0.3.0730 / 1.61.00 Lambda 800

0
0
2
0
0
UV/VIS
1
1
1
RBeamAtt,SBeamAtt,150mm sphere / downward view
0
0
0
0
Fix
 
0
0.2
0
0
0
 
 
 
0
 
0
319.2
0
Front
50
 
S:100 R:100
 
0
0
0
 
0
 
 
 
0
 
 
0
0
0
0
0
 
 
 
 
0
0


#HDR
-1
-1
#GR
nm
A
1.0
0.0
800.000000
-1.000000
501
8
0.004469
-0.002370
#DATA
800.000000	0.000552
799.000000	0.000982
798.000000	-0.000304
797.000000	0.002191
796.000000	-0.000280
795.000000	0.000242
794.000000	-0.000195
793.000000	-0.000605
792.000000	0.001183
791.000000	0.001381
790.000000	0.000783
789.000000	-0.000119
788.000000	0.000218
787.000000	0.001787
786.000000	0.000067
785.000000	0.000843
784.000000	0.000269
783.000000	0.000728
782.000000	0.001287
781.000000	0.000601
780.000000	0.000855
779.000000	-0.000168
778.000000	0.000279
777.000000	-0.000170
776.000000	0.001069
775.000000	0.001224
774.000000	0.000703
773.000000	0.000145
772.000000	0.000903
771.000000	0.001133
770.000000	0.000744
769.000000	0.002031
768.000000	0.000962
767.000000	0.001676
766.000000	0.000388
765.000000	0.000225
764.000000	-0.000336
763.000000	0.000766
762.000000	0.000441
761.000000	0.000776
760.000000	-0.000230
759.000000	0.000494
758.000000	-0.000139
757.000000	0.000415
756.000000	-0.000287
755.000000	0.001231
754.000000	-0.000070
753.000000	-0.000351
752.000000	0.000503
751.000000	-0.001116
750.000000	-0.000315
749.000000	0.001138
748.000000	0.001115
747.000000	0.000600
746.000000	0.000132
745.000000	-0.000062
744.000000	-0.000501
743.000000	0.000375
742.000000	0.000392
741.000000	0.000107
740.000000	0.000668
739.000000	-0.000895
738.000000	0.000039
737.000000	-0.000748
736.000000	0.000298
735.000000	0.000205
734.000000	0.000602
733.000000	0.000729
732.000000	-0.000150
731.000000	0.000100
730.000000	0.000042
729.000000	0.000482
728.000000	0.000312
727.000000	0.000317
726.000000	0.000311
725.000000	0.000149
724.000000	-0.000024
723.000000	0.000048
722.000000	0.000256
721.000000	0.000098
720.000000	-0.000345
719.000000	0.000165
718.000000	0.000195
717.000000	-0.000449
716.000000	-0.000328
715.000000	-0.000169
714.000000	0.000128
713.000000	0.000216
712.000000	0.000315
711.000000	-0.000142
710.000000	0.000197
709.000000	0.000376
708.000000	0.000446
707.000000	0.000329
706.000000	0.000384
705.000000	-0.000237
704.000000	-0.000527
703.000000	-0.000811
702.000000	-0.000469
701.000000	0.000046
700.000000	0.000011
699.000000	0.000097
698.000000	-0.000070
697.000000	0.000005
696.000000	-0.000054
695.000000	0.000086
694.000000	0.000237
693.000000	-0.000037
692.000000	0.000150
691.000000	0.000160
690.000000	0.000025
689.000000	0.000649
688.000000	0.000996
687.000000	0.000297
686.000000	-0.000121
685.000000	0.000114
684.000000	0.000091
683.000000	-0.000108
682.000000	0.000177
681.000000	0.000138
680.000000	-0.000528
679.000000	-0.000506
678.000000	-0.000015
677.000000	0.000523
676.000000	0.000532
675.000000	0.000586
674.000000	0.000502
673.000000	-0.000074
672.000000	-0.000255
671.000000	-0.000213
670.000000	0.000302
669.000000	0.000503
668.000000	0.000384
667.000000	0.000369
666.000000	0.000532
665.000000	-0.000011
664.000000	-0.000386
663.000000	0.000044
662.000000	0.000225
661.000000	0.000304
660.000000	0.000216
659.000000	0.000216
658.000000	0.000669
657.000000	0.000106
656.000000	-0.000307
655.000000	0.000168
654.000000	-0.000118
653.000000	-0.000301
652.000000	-0.000160
651.000000	-0.000231
650.000000	0.000036
649.000000	0.000224
648.000000	0.000161
647.000000	-0.000011
646.000000	0.000080
645.000000	-0.000094
644.000000	-0.000115
643.000000	0.000257
642.000000	0.000245
641.000000	0.000166
640.000000	0.000412
639.000000	0.000043
638.000000	-0.000295
637.000000	0.000426
636.000000	0.000605
635.000000	0.000064
634.000000	-0.000033
633.000000	-0.000088
632.000000	0.000160
631.000000	0.000612
630.000000	0.000682
629.000000	0.000092
628.000000	-0.000292
627.000000	-0.000165
626.000000	-0.000015
625.000000	0.000160
624.000000	-0.000204
623.000000	-0.000220
622.000000	-0.000099
621.000000	-0.000015
620.000000	0.000276
619.000000	-0.000143
618.000000	-0.000401
617.000000	-0.000168
616.000000	0.000054
615.000000	-0.000268
614.000000	0.000121
613.000000	0.000825
612.000000	0.000352
611.000000	0.000280
610.000000	0.000544
609.000000	0.000017
608.000000	0.000363
607.000000	0.000079
606.000000	0.000360
605.000000	0.000481
604.000000	0.000275
603.000000	0.000168
602.000000	-0.000286
601.000000	0.000335
600.000000	0.000471
599.000000	0.000427
598.000000	0.000016
597.000000	-0.000017
596.000000	0.000255
595.000000	0.000404
594.000000	0.000139
593.000000	-0.000084
592.000000	-0.000201
591.000000	-0.000039
590.000000	-0.000165
589.000000	-0.000317
588.000000	-0.000057
587.000000	-0.000143
586.000000	-0.000310
585.000000	0.000197
584.000000	0.000445
583.000000	0.000004
582.000000	-0.000285
581.000000	-0.000348
580.000000	0.000184
579.000000	-0.000201
578.000000	-0.000344
577.000000	-0.000049
576.000000	-0.000109
575.000000	-0.000033
574.000000	-0.000044
573.000000	0.000315
572.000000	0.000210
571.000000	-0.000137
570.000000	-0.000210
569.000000	0.000012
568.000000	0.000023
567.000000	-0.000104
566.000000	0.000055
565.000000	0.000015
564.000000	0.000295
563.000000	0.000239
562.000000	0.000025
561.000000	-0.000547
560.000000	-0.000119
559.000000	0.000013
558.000000	0.000279
557.000000	0.000487
556.000000	0.000124
555.000000	-0.000262
554.000000	-0.000372
553.000000	0.000407
552.000000	-0.000368
551.000000	0.000503
550.000000	-0.000152
549.000000	-0.000190
548.000000	0.000342
547.000000	0.000208
546.000000	0.000298
545.000000	0.000147
544.000000	0.000468
543.000000	0.000277
542.000000	0.000098
541.000000	0.000043
540.000000	-0.000029
539.000000	0.000085
538.000000	-0.000169
537.000000	0.000004
536.000000	0.000116
535.000000	0.000532
534.000000	0.000338
533.000000	0.000130
532.000000	0.000059
531.000000	-0.000097
530.000000	-0.000044
529.000000	-0.000255
528.000000	0.000186
527.000000	0.000122
526.000000	0.000435
525.000000	0.000216
524.000000	0.000190
523.000000	-0.000405
522.000000	0.000122
521.000000	0.000016
520.000000	-0.000071
519.000000	-0.000378
518.000000	-0.000229
517.000000	-0.000187
516.000000	-0.000080
515.000000	-0.000210
514.000000	0.000149
513.000000	0.000287
512.000000	0.000580
511.000000	0.000008
510.000000	-0.000177
509.000000	-0.000169
508.000000	-0.000022
507.000000	0.000044
506.000000	0.000379
505.000000	0.000659
504.000000	0.000207
503.000000	0.000088
502.000000	0.000352
501.000000	0.000379
500.000000	0.000443
499.000000	0.000183
498.000000	0.000442
497.000000	0.000312
496.000000	0.000465
495.000000	0.000365
494.000000	0.000048
493.000000	0.000374
492.000000	0.000212
491.000000	0.000375
490.000000	0.000142
489.000000	0.000104
488.000000	-0.000136
487.000000	-0.000139
486.000000	-0.000040
485.000000	-0.000322
484.000000	-0.000411
483.000000	0.000073
482.000000	0.000415
481.000000	-0.000046
480.000000	0.000168
479.000000	-0.000032
478.000000	0.000340
477.000000	0.000152
476.000000	0.000329
475.000000	0.000340
474.000000	0.000696
473.000000	0.000357
472.000000	-0.000270
471.000000	-0.000564
470.000000	-0.000047
469.000000	0.000565
468.000000	0.000220
467.000000	0.000322
466.000000	0.000497
465.000000	-0.000102
464.000000	-0.000019
463.000000	0.000112
462.000000	-0.000044
461.000000	0.000104
460.000000	-0.000088
459.000000	0.000083
458.000000	0.000120
457.000000	-0.000204
456.000000	-0.000151
455.000000	-0.000184
454.000000	0.000212
453.000000	0.000063
452.000000	0.000010
451.000000	0.000094
450.000000	-0.000133
449.000000	-0.000720
448.000000	-0.000266
447.000000	0.000372
446.000000	-0.000005
445.000000	0.000001
444.000000	-0.000032
443.000000	0.000115
442.000000	0.000375
441.000000	0.000362
440.000000	0.000014
439.000000	-0.000333
438.000000	0.000012
437.000000	-0.000134
436.000000	-0.000422
435.000000	-0.000550
434.000000	-0.000035
433.000000	0.000236
432.000000	-0.000004
431.000000	0.000343
430.000000	-0.000021
429.000000	-0.000113
428.000000	0.000099
427.000000	0.000205
426.000000	0.000124
425.000000	-0.000210
424.000000	-0.000267
423.000000	0.000277
422.000000	0.000642
421.000000	-0.000058
420.000000	-0.000798
419.000000	-0.000400
418.000000	0.000242
417.000000	-0.000084
416.000000	-0.000362
415.000000	0.000187
414.000000	-0.000192
413.000000	-0.000247
412.000000	-0.000057
411.000000	-0.000313
410.000000	-0.000007
409.000000	0.000316
408.000000	0.000554
407.000000	0.000273
406.000000	-0.000164
405.000000	0.000127
404.000000	0.000266
403.000000	-0.000152
402.000000	0.000258
401.000000	0.000432
400.000000	0.000080
399.000000	0.000289
398.000000	0.000178
397.000000	0.000052
396.000000	-0.000383
395.000000	-0.000814
394.000000	-0.000474
393.000000	0.000464
392.000000	0.000121
391.000000	-0.000132
390.000000	-0.000222
389.000000	0.000052
388.000000	0.000274
387.000000	-0.000232
386.000000	0.000223
385.000000	-0.000516
384.000000	-0.000202
383.000000	0.000539
382.000000	0.000859
381.000000	0.000871
380.000000	-0.000169
379.000000	0.000426
378.000000	0.000568
377.000000	0.000691
376.000000	0.000532
375.000000	0.001592
374.000000	-0.000250
373.000000	0.000285
372.000000	0.000635
371.000000	0.001085
370.000000	0.000083
369.000000	-0.000112
368.000000	0.000346
367.000000	0.000520
366.000000	0.001023
365.000000	0.000951
364.000000	0.000252
363.000000	0.000113
362.000000	-0.000244
361.000000	0.000504
360.000000	-0.000052
359.000000	0.000557
358.000000	-0.000282
357.000000	-0.000717
356.000000	0.001250
355.000000	0.000057
354.000000	-0.000674
353.000000	-0.000680
352.000000	0.001353
351.000000	0.000179
350.000000	-0.001834
349.000000	-0.000859
348.000000	-0.001333
347.000000	0.001751
346.000000	0.001329
345.000000	0.001480
344.000000	-0.000409
343.000000	-0.000200
342.000000	0.000556
341.000000	-0.001401
340.000000	0.001593
339.000000	0.001996
338.000000	0.001622
337.000000	0.000218
336.000000	0.000824
335.000000	0.002404
334.000000	-0.001544
333.000000	0.000890
332.000000	-0.002370
331.000000	-0.000306
330.000000	-0.000573
329.000000	-0.000629
328.000000	0.000882
327.000000	0.001334
326.000000	0.002403
325.000000	-0.000479
324.000000	-0.001147
323.000000	-0.000664
322.000000	0.004469
321.000000	0.001207
320.000000	0.002495
319.000000	-0.002264
318.000000	0.000915
317.000000	0.000456
316.000000	0.000036
315.000000	-0.001138
314.000000	-0.000673
313.000000	-0.000733
312.000000	-0.001255
311.000000	-0.000294
310.000000	0.001126
309.000000	-0.001451
308.000000	0.001111
307.000000	-0.000435
306.000000	0.000478
305.000000	0.000056
304.000000	0.002002
303.000000	-0.001855
302.000000	0.001404
301.000000	-0.000980
300.000000	-0.000342
