PE UV       SUBTECH     SPECTRUM    ASCII       PEDS        4.00        
   -1
PETIT_43.Sample.Raw.asc
20/12/15
10:47:35.00
20/12/15
10:47:35.00
CNRS
RCC1717_B_DM
300.000000
1
Lambda 850
850L1011221
PerkinElmer UV WinLab 6.0.3.0730 / 1.61.00 Lambda 800

0
0
2
0
0
UV/VIS
1
1
1
RBeamAtt,SBeamAtt,150mm sphere / downward view
0
0
0
0
Fix
 
0
0.2
0
0
0
 
 
 
0
 
0
319.2
0
Front
50
 
S:100 R:100
 
0
0
0
 
0
 
 
 
0
 
 
0
0
0
0
0
 
 
 
 
0
0


#HDR
-1
-1
#GR
nm
A
1.0
0.0
800.000000
-1.000000
501
8
0.051598
-0.015461
#DATA
800.000000	-0.014481
799.000000	-0.013917
798.000000	-0.015201
797.000000	-0.013211
796.000000	-0.014945
795.000000	-0.015461
794.000000	-0.015264
793.000000	-0.014948
792.000000	-0.014292
791.000000	-0.013491
790.000000	-0.013765
789.000000	-0.013505
788.000000	-0.014143
787.000000	-0.013788
786.000000	-0.014990
785.000000	-0.014858
784.000000	-0.014068
783.000000	-0.015443
782.000000	-0.013139
781.000000	-0.013047
780.000000	-0.013857
779.000000	-0.015156
778.000000	-0.014397
777.000000	-0.014841
776.000000	-0.013656
775.000000	-0.013645
774.000000	-0.013653
773.000000	-0.014067
772.000000	-0.014341
771.000000	-0.013894
770.000000	-0.013866
769.000000	-0.012986
768.000000	-0.014146
767.000000	-0.014012
766.000000	-0.013219
765.000000	-0.013742
764.000000	-0.014463
763.000000	-0.013099
762.000000	-0.013877
761.000000	-0.013536
760.000000	-0.014948
759.000000	-0.013290
758.000000	-0.014515
757.000000	-0.014129
756.000000	-0.014495
755.000000	-0.012521
754.000000	-0.013864
753.000000	-0.014895
752.000000	-0.014220
751.000000	-0.013854
750.000000	-0.013265
749.000000	-0.012535
748.000000	-0.012131
747.000000	-0.012721
746.000000	-0.013216
745.000000	-0.013860
744.000000	-0.014190
743.000000	-0.014122
742.000000	-0.014015
741.000000	-0.014746
740.000000	-0.013906
739.000000	-0.014507
738.000000	-0.013731
737.000000	-0.013993
736.000000	-0.013314
735.000000	-0.014371
734.000000	-0.013247
733.000000	-0.013582
732.000000	-0.014655
731.000000	-0.014849
730.000000	-0.014766
729.000000	-0.014803
728.000000	-0.013874
727.000000	-0.014462
726.000000	-0.014124
725.000000	-0.014318
724.000000	-0.014754
723.000000	-0.014780
722.000000	-0.014228
721.000000	-0.014167
720.000000	-0.013852
719.000000	-0.013536
718.000000	-0.013808
717.000000	-0.013579
716.000000	-0.013240
715.000000	-0.012505
714.000000	-0.011863
713.000000	-0.012097
712.000000	-0.012126
711.000000	-0.011914
710.000000	-0.011311
709.000000	-0.010281
708.000000	-0.009838
707.000000	-0.009995
706.000000	-0.009801
705.000000	-0.009237
704.000000	-0.008657
703.000000	-0.008357
702.000000	-0.008052
701.000000	-0.007495
700.000000	-0.006496
699.000000	-0.005520
698.000000	-0.004421
697.000000	-0.003674
696.000000	-0.002453
695.000000	-0.001143
694.000000	0.000177
693.000000	0.001333
692.000000	0.002890
691.000000	0.004774
690.000000	0.006235
689.000000	0.008460
688.000000	0.010322
687.000000	0.011742
686.000000	0.013915
685.000000	0.016422
684.000000	0.018321
683.000000	0.019653
682.000000	0.021743
681.000000	0.023379
680.000000	0.024652
679.000000	0.025927
678.000000	0.027323
677.000000	0.028242
676.000000	0.028702
675.000000	0.029258
674.000000	0.029158
673.000000	0.028509
672.000000	0.027757
671.000000	0.026915
670.000000	0.025893
669.000000	0.024400
668.000000	0.022429
667.000000	0.020429
666.000000	0.018605
665.000000	0.016351
664.000000	0.014045
663.000000	0.012355
662.000000	0.010621
661.000000	0.008657
660.000000	0.006811
659.000000	0.005470
658.000000	0.004532
657.000000	0.002954
656.000000	0.001651
655.000000	0.001082
654.000000	0.000448
653.000000	-0.000074
652.000000	-0.000859
651.000000	-0.001532
650.000000	-0.001532
649.000000	-0.001552
648.000000	-0.001473
647.000000	-0.001574
646.000000	-0.001543
645.000000	-0.001499
644.000000	-0.001404
643.000000	-0.001247
642.000000	-0.001025
641.000000	-0.000792
640.000000	-0.000320
639.000000	-0.000465
638.000000	-0.000633
637.000000	0.000091
636.000000	0.000182
635.000000	-0.000025
634.000000	-0.000228
633.000000	-0.000253
632.000000	-0.000235
631.000000	-0.000406
630.000000	-0.000486
629.000000	-0.001129
628.000000	-0.001107
627.000000	-0.001459
626.000000	-0.001557
625.000000	-0.001488
624.000000	-0.001622
623.000000	-0.001731
622.000000	-0.001911
621.000000	-0.001934
620.000000	-0.002147
619.000000	-0.002558
618.000000	-0.003088
617.000000	-0.002959
616.000000	-0.003378
615.000000	-0.003661
614.000000	-0.003990
613.000000	-0.003707
612.000000	-0.004324
611.000000	-0.004647
610.000000	-0.004018
609.000000	-0.005014
608.000000	-0.005155
607.000000	-0.005729
606.000000	-0.005684
605.000000	-0.005170
604.000000	-0.005735
603.000000	-0.005276
602.000000	-0.006505
601.000000	-0.006258
600.000000	-0.006224
599.000000	-0.006000
598.000000	-0.006044
597.000000	-0.005926
596.000000	-0.005810
595.000000	-0.005406
594.000000	-0.005458
593.000000	-0.005455
592.000000	-0.005086
591.000000	-0.004377
590.000000	-0.004362
589.000000	-0.005117
588.000000	-0.004522
587.000000	-0.004831
586.000000	-0.004957
585.000000	-0.004391
584.000000	-0.004529
583.000000	-0.004842
582.000000	-0.004638
581.000000	-0.005181
580.000000	-0.004589
579.000000	-0.005186
578.000000	-0.005532
577.000000	-0.004683
576.000000	-0.004874
575.000000	-0.005089
574.000000	-0.004461
573.000000	-0.004572
572.000000	-0.004501
571.000000	-0.004904
570.000000	-0.004423
569.000000	-0.004267
568.000000	-0.004159
567.000000	-0.004728
566.000000	-0.003546
565.000000	-0.003452
564.000000	-0.002952
563.000000	-0.002812
562.000000	-0.002534
561.000000	-0.002168
560.000000	-0.001808
559.000000	-0.001403
558.000000	-0.001011
557.000000	-0.000091
556.000000	0.000151
555.000000	0.000074
554.000000	0.000440
553.000000	0.001336
552.000000	0.001126
551.000000	0.002335
550.000000	0.001884
549.000000	0.002423
548.000000	0.003152
547.000000	0.003317
546.000000	0.003900
545.000000	0.004348
544.000000	0.004817
543.000000	0.005040
542.000000	0.005640
541.000000	0.005727
540.000000	0.005625
539.000000	0.006144
538.000000	0.006925
537.000000	0.006718
536.000000	0.007228
535.000000	0.007560
534.000000	0.007954
533.000000	0.008335
532.000000	0.008275
531.000000	0.008848
530.000000	0.008911
529.000000	0.008912
528.000000	0.009525
527.000000	0.010039
526.000000	0.010213
525.000000	0.010539
524.000000	0.010599
523.000000	0.010152
522.000000	0.010721
521.000000	0.011529
520.000000	0.011909
519.000000	0.011598
518.000000	0.011617
517.000000	0.011941
516.000000	0.013016
515.000000	0.012895
514.000000	0.013425
513.000000	0.014094
512.000000	0.014423
511.000000	0.014495
510.000000	0.014749
509.000000	0.015099
508.000000	0.015575
507.000000	0.016281
506.000000	0.016847
505.000000	0.017259
504.000000	0.017342
503.000000	0.017489
502.000000	0.018519
501.000000	0.019120
500.000000	0.019169
499.000000	0.019562
498.000000	0.020208
497.000000	0.020265
496.000000	0.021174
495.000000	0.020872
494.000000	0.020852
493.000000	0.021679
492.000000	0.022096
491.000000	0.021800
490.000000	0.022046
489.000000	0.022515
488.000000	0.022164
487.000000	0.022870
486.000000	0.023602
485.000000	0.023814
484.000000	0.024038
483.000000	0.024876
482.000000	0.025034
481.000000	0.025092
480.000000	0.025946
479.000000	0.026214
478.000000	0.027031
477.000000	0.027769
476.000000	0.028926
475.000000	0.030133
474.000000	0.030944
473.000000	0.032061
472.000000	0.032469
471.000000	0.032986
470.000000	0.033935
469.000000	0.035088
468.000000	0.035948
467.000000	0.036789
466.000000	0.037576
465.000000	0.037677
464.000000	0.038091
463.000000	0.038600
462.000000	0.038656
461.000000	0.039050
460.000000	0.039442
459.000000	0.039876
458.000000	0.039625
457.000000	0.039742
456.000000	0.040067
455.000000	0.040376
454.000000	0.040597
453.000000	0.040723
452.000000	0.041025
451.000000	0.041188
450.000000	0.041957
449.000000	0.041864
448.000000	0.043270
447.000000	0.044673
446.000000	0.045471
445.000000	0.045864
444.000000	0.046143
443.000000	0.047344
442.000000	0.048317
441.000000	0.048461
440.000000	0.048725
439.000000	0.048762
438.000000	0.048786
437.000000	0.049125
436.000000	0.049067
435.000000	0.048796
434.000000	0.048821
433.000000	0.048402
432.000000	0.048152
431.000000	0.047893
430.000000	0.047140
429.000000	0.046566
428.000000	0.046204
427.000000	0.045550
426.000000	0.045365
425.000000	0.045515
424.000000	0.045109
423.000000	0.045317
422.000000	0.045553
421.000000	0.045465
420.000000	0.045371
419.000000	0.044962
418.000000	0.044801
417.000000	0.044510
416.000000	0.044371
415.000000	0.044806
414.000000	0.044403
413.000000	0.043830
412.000000	0.044078
411.000000	0.044079
410.000000	0.043527
409.000000	0.042596
408.000000	0.042192
407.000000	0.041510
406.000000	0.040724
405.000000	0.040775
404.000000	0.040537
403.000000	0.039486
402.000000	0.038713
401.000000	0.038625
400.000000	0.038444
399.000000	0.038191
398.000000	0.037814
397.000000	0.037497
396.000000	0.036100
395.000000	0.035572
394.000000	0.036084
393.000000	0.035770
392.000000	0.035198
391.000000	0.035300
390.000000	0.035377
389.000000	0.034553
388.000000	0.035046
387.000000	0.034678
386.000000	0.033923
385.000000	0.033166
384.000000	0.032504
383.000000	0.033108
382.000000	0.033515
381.000000	0.032508
380.000000	0.031123
379.000000	0.031203
378.000000	0.029009
377.000000	0.027999
376.000000	0.029110
375.000000	0.029193
374.000000	0.026352
373.000000	0.025740
372.000000	0.026047
371.000000	0.026479
370.000000	0.025349
369.000000	0.025425
368.000000	0.025757
367.000000	0.023921
366.000000	0.022971
365.000000	0.022928
364.000000	0.021526
363.000000	0.022728
362.000000	0.019649
361.000000	0.020409
360.000000	0.021563
359.000000	0.020065
358.000000	0.018868
357.000000	0.017502
356.000000	0.018487
355.000000	0.017214
354.000000	0.016008
353.000000	0.014740
352.000000	0.017529
351.000000	0.014647
350.000000	0.012062
349.000000	0.015884
348.000000	0.015012
347.000000	0.015334
346.000000	0.015805
345.000000	0.017114
344.000000	0.015661
343.000000	0.017166
342.000000	0.019457
341.000000	0.016220
340.000000	0.020359
339.000000	0.019081
338.000000	0.017174
337.000000	0.018854
336.000000	0.019224
335.000000	0.019132
334.000000	0.019752
333.000000	0.019412
332.000000	0.021031
331.000000	0.022113
330.000000	0.019213
329.000000	0.017427
328.000000	0.017115
327.000000	0.019243
326.000000	0.021719
325.000000	0.019448
324.000000	0.017252
323.000000	0.020282
322.000000	0.018793
321.000000	0.023221
320.000000	0.023700
319.000000	0.020625
318.000000	0.020452
317.000000	0.022330
316.000000	0.022377
315.000000	0.020672
314.000000	0.024448
313.000000	0.025025
312.000000	0.025328
311.000000	0.026582
310.000000	0.029187
309.000000	0.029431
308.000000	0.032724
307.000000	0.032632
306.000000	0.035826
305.000000	0.038972
304.000000	0.039872
303.000000	0.039122
302.000000	0.045025
301.000000	0.049941
300.000000	0.051598
