PE UV       SUBTECH     SPECTRUM    ASCII       PEDS        4.00        
   -1
PETIT_40.Sample.Raw.asc
20/12/15
10:37:04.00
20/12/15
10:37:04.00
CNRS
RCC9511_B_DM
300.000000
1
Lambda 850
850L1011221
PerkinElmer UV WinLab 6.0.3.0730 / 1.61.00 Lambda 800

0
0
2
0
0
UV/VIS
1
1
1
RBeamAtt,SBeamAtt,150mm sphere / downward view
0
0
0
0
Fix
 
0
0.2
0
0
0
 
 
 
0
 
0
319.2
0
Front
50
 
S:100 R:100
 
0
0
0
 
0
 
 
 
0
 
 
0
0
0
0
0
 
 
 
 
0
0


#HDR
-1
-1
#GR
nm
A
1.0
0.0
800.000000
-1.000000
501
8
0.125962
-0.014578
#DATA
800.000000	-0.012325
799.000000	-0.011898
798.000000	-0.013305
797.000000	-0.012707
796.000000	-0.013637
795.000000	-0.014259
794.000000	-0.013884
793.000000	-0.013280
792.000000	-0.013043
791.000000	-0.012244
790.000000	-0.012780
789.000000	-0.013959
788.000000	-0.012485
787.000000	-0.012477
786.000000	-0.013238
785.000000	-0.012565
784.000000	-0.012605
783.000000	-0.014203
782.000000	-0.011147
781.000000	-0.011642
780.000000	-0.012478
779.000000	-0.013483
778.000000	-0.012946
777.000000	-0.012497
776.000000	-0.012569
775.000000	-0.011655
774.000000	-0.012181
773.000000	-0.013261
772.000000	-0.012859
771.000000	-0.012335
770.000000	-0.012460
769.000000	-0.011969
768.000000	-0.013039
767.000000	-0.012689
766.000000	-0.012552
765.000000	-0.012229
764.000000	-0.013189
763.000000	-0.012875
762.000000	-0.013727
761.000000	-0.013127
760.000000	-0.013763
759.000000	-0.013539
758.000000	-0.013559
757.000000	-0.013369
756.000000	-0.013227
755.000000	-0.012127
754.000000	-0.013213
753.000000	-0.013858
752.000000	-0.013451
751.000000	-0.013519
750.000000	-0.013802
749.000000	-0.012671
748.000000	-0.012382
747.000000	-0.012674
746.000000	-0.012412
745.000000	-0.012938
744.000000	-0.013330
743.000000	-0.013015
742.000000	-0.013505
741.000000	-0.013465
740.000000	-0.012113
739.000000	-0.013988
738.000000	-0.013101
737.000000	-0.014325
736.000000	-0.013577
735.000000	-0.013791
734.000000	-0.014071
733.000000	-0.013885
732.000000	-0.014400
731.000000	-0.014031
730.000000	-0.013848
729.000000	-0.014111
728.000000	-0.013903
727.000000	-0.013804
726.000000	-0.014162
725.000000	-0.014115
724.000000	-0.014489
723.000000	-0.014578
722.000000	-0.014403
721.000000	-0.013871
720.000000	-0.014081
719.000000	-0.014379
718.000000	-0.014489
717.000000	-0.014445
716.000000	-0.013908
715.000000	-0.014501
714.000000	-0.014287
713.000000	-0.014535
712.000000	-0.014034
711.000000	-0.014271
710.000000	-0.014081
709.000000	-0.013685
708.000000	-0.013611
707.000000	-0.013247
706.000000	-0.013011
705.000000	-0.013086
704.000000	-0.012516
703.000000	-0.011875
702.000000	-0.011883
701.000000	-0.011524
700.000000	-0.010606
699.000000	-0.009972
698.000000	-0.009084
697.000000	-0.007903
696.000000	-0.006083
695.000000	-0.004221
694.000000	-0.003122
693.000000	-0.001354
692.000000	0.001396
691.000000	0.003841
690.000000	0.006275
689.000000	0.009045
688.000000	0.012268
687.000000	0.015465
686.000000	0.018150
685.000000	0.021080
684.000000	0.023757
683.000000	0.026665
682.000000	0.029474
681.000000	0.031407
680.000000	0.032742
679.000000	0.033951
678.000000	0.035376
677.000000	0.036608
676.000000	0.037671
675.000000	0.038538
674.000000	0.038439
673.000000	0.038198
672.000000	0.037718
671.000000	0.036971
670.000000	0.036049
669.000000	0.034329
668.000000	0.031906
667.000000	0.029303
666.000000	0.026774
665.000000	0.023682
664.000000	0.020513
663.000000	0.017755
662.000000	0.015296
661.000000	0.012740
660.000000	0.010414
659.000000	0.008625
658.000000	0.007110
657.000000	0.004946
656.000000	0.003046
655.000000	0.002508
654.000000	0.001869
653.000000	0.000726
652.000000	-0.000144
651.000000	-0.000689
650.000000	-0.001467
649.000000	-0.001909
648.000000	-0.001923
647.000000	-0.002540
646.000000	-0.002700
645.000000	-0.002833
644.000000	-0.003165
643.000000	-0.002856
642.000000	-0.002745
641.000000	-0.002995
640.000000	-0.002232
639.000000	-0.002339
638.000000	-0.002526
637.000000	-0.001965
636.000000	-0.002039
635.000000	-0.002128
634.000000	-0.001927
633.000000	-0.001480
632.000000	-0.001324
631.000000	-0.001693
630.000000	-0.001368
629.000000	-0.001579
628.000000	-0.002081
627.000000	-0.002124
626.000000	-0.002192
625.000000	-0.001956
624.000000	-0.002334
623.000000	-0.002611
622.000000	-0.003179
621.000000	-0.003205
620.000000	-0.002889
619.000000	-0.003705
618.000000	-0.003864
617.000000	-0.003871
616.000000	-0.003834
615.000000	-0.004751
614.000000	-0.004634
613.000000	-0.004575
612.000000	-0.004656
611.000000	-0.005382
610.000000	-0.005728
609.000000	-0.006056
608.000000	-0.005789
607.000000	-0.006558
606.000000	-0.006179
605.000000	-0.005823
604.000000	-0.006704
603.000000	-0.006873
602.000000	-0.007364
601.000000	-0.007028
600.000000	-0.007194
599.000000	-0.007260
598.000000	-0.007849
597.000000	-0.008241
596.000000	-0.007850
595.000000	-0.008002
594.000000	-0.007818
593.000000	-0.007960
592.000000	-0.007788
591.000000	-0.007646
590.000000	-0.007590
589.000000	-0.007995
588.000000	-0.007743
587.000000	-0.008084
586.000000	-0.008261
585.000000	-0.007981
584.000000	-0.008239
583.000000	-0.009344
582.000000	-0.008961
581.000000	-0.008749
580.000000	-0.008881
579.000000	-0.009211
578.000000	-0.009565
577.000000	-0.009249
576.000000	-0.009797
575.000000	-0.009553
574.000000	-0.009537
573.000000	-0.009674
572.000000	-0.009777
571.000000	-0.010212
570.000000	-0.010245
569.000000	-0.009984
568.000000	-0.010155
567.000000	-0.010144
566.000000	-0.010241
565.000000	-0.009915
564.000000	-0.009678
563.000000	-0.009910
562.000000	-0.009999
561.000000	-0.009785
560.000000	-0.009407
559.000000	-0.009553
558.000000	-0.009212
557.000000	-0.008901
556.000000	-0.008802
555.000000	-0.009050
554.000000	-0.008823
553.000000	-0.007910
552.000000	-0.008915
551.000000	-0.007746
550.000000	-0.008686
549.000000	-0.008251
548.000000	-0.007789
547.000000	-0.007636
546.000000	-0.007643
545.000000	-0.007319
544.000000	-0.007212
543.000000	-0.007199
542.000000	-0.006882
541.000000	-0.006523
540.000000	-0.006621
539.000000	-0.006529
538.000000	-0.005660
537.000000	-0.005477
536.000000	-0.005574
535.000000	-0.004661
534.000000	-0.004103
533.000000	-0.004279
532.000000	-0.003917
531.000000	-0.003698
530.000000	-0.002888
529.000000	-0.002575
528.000000	-0.001423
527.000000	-0.000983
526.000000	0.000178
525.000000	0.000769
524.000000	0.001663
523.000000	0.002137
522.000000	0.003693
521.000000	0.005514
520.000000	0.006725
519.000000	0.007964
518.000000	0.009465
517.000000	0.011448
516.000000	0.013533
515.000000	0.015040
514.000000	0.017425
513.000000	0.020094
512.000000	0.022378
511.000000	0.024155
510.000000	0.026313
509.000000	0.028786
508.000000	0.031243
507.000000	0.034189
506.000000	0.036609
505.000000	0.039057
504.000000	0.041216
503.000000	0.043411
502.000000	0.046355
501.000000	0.048815
500.000000	0.050396
499.000000	0.051851
498.000000	0.053799
497.000000	0.055293
496.000000	0.057224
495.000000	0.058044
494.000000	0.059150
493.000000	0.060604
492.000000	0.061075
491.000000	0.061730
490.000000	0.062271
489.000000	0.063189
488.000000	0.063140
487.000000	0.063633
486.000000	0.064066
485.000000	0.064182
484.000000	0.064623
483.000000	0.064903
482.000000	0.065487
481.000000	0.065482
480.000000	0.065687
479.000000	0.066231
478.000000	0.067129
477.000000	0.067959
476.000000	0.069425
475.000000	0.070438
474.000000	0.071537
473.000000	0.072449
472.000000	0.073669
471.000000	0.075036
470.000000	0.076927
469.000000	0.078740
468.000000	0.081411
467.000000	0.083411
466.000000	0.085217
465.000000	0.087070
464.000000	0.089236
463.000000	0.091394
462.000000	0.094053
461.000000	0.096869
460.000000	0.099348
459.000000	0.101786
458.000000	0.104607
457.000000	0.107175
456.000000	0.109558
455.000000	0.111950
454.000000	0.114370
453.000000	0.115925
452.000000	0.118301
451.000000	0.119842
450.000000	0.121118
449.000000	0.122178
448.000000	0.123682
447.000000	0.125290
446.000000	0.125816
445.000000	0.125937
444.000000	0.125794
443.000000	0.125962
442.000000	0.125345
441.000000	0.123798
440.000000	0.122504
439.000000	0.121008
438.000000	0.120078
437.000000	0.119012
436.000000	0.117492
435.000000	0.116196
434.000000	0.115816
433.000000	0.114722
432.000000	0.113945
431.000000	0.113317
430.000000	0.112526
429.000000	0.111440
428.000000	0.110469
427.000000	0.109801
426.000000	0.109241
425.000000	0.108485
424.000000	0.106904
423.000000	0.105894
422.000000	0.105052
421.000000	0.103439
420.000000	0.101302
419.000000	0.099510
418.000000	0.097892
417.000000	0.096486
416.000000	0.095043
415.000000	0.093529
414.000000	0.091389
413.000000	0.090049
412.000000	0.088908
411.000000	0.086750
410.000000	0.085640
409.000000	0.084342
408.000000	0.083588
407.000000	0.082239
406.000000	0.080898
405.000000	0.080462
404.000000	0.079984
403.000000	0.079693
402.000000	0.079372
401.000000	0.078886
400.000000	0.078647
399.000000	0.078810
398.000000	0.078485
397.000000	0.078894
396.000000	0.078609
395.000000	0.078394
394.000000	0.078669
393.000000	0.078994
392.000000	0.078393
391.000000	0.078732
390.000000	0.078675
389.000000	0.077621
388.000000	0.076490
387.000000	0.075313
386.000000	0.074354
385.000000	0.072300
384.000000	0.070481
383.000000	0.068921
382.000000	0.067286
381.000000	0.064666
380.000000	0.060447
379.000000	0.058721
378.000000	0.056672
377.000000	0.052575
376.000000	0.050318
375.000000	0.048505
374.000000	0.045972
373.000000	0.043192
372.000000	0.042427
371.000000	0.040536
370.000000	0.037182
369.000000	0.034941
368.000000	0.034464
367.000000	0.033681
366.000000	0.031397
365.000000	0.030145
364.000000	0.030047
363.000000	0.030685
362.000000	0.028228
361.000000	0.028197
360.000000	0.026404
359.000000	0.025525
358.000000	0.025193
357.000000	0.025384
356.000000	0.024274
355.000000	0.023379
354.000000	0.023489
353.000000	0.023451
352.000000	0.023340
351.000000	0.021801
350.000000	0.020280
349.000000	0.022091
348.000000	0.022883
347.000000	0.022690
346.000000	0.021405
345.000000	0.022747
344.000000	0.023127
343.000000	0.024438
342.000000	0.024206
341.000000	0.022942
340.000000	0.024376
339.000000	0.024419
338.000000	0.023244
337.000000	0.022660
336.000000	0.024043
335.000000	0.025289
334.000000	0.023851
333.000000	0.023440
332.000000	0.021485
331.000000	0.023108
330.000000	0.022110
329.000000	0.020126
328.000000	0.019718
327.000000	0.021170
326.000000	0.023112
325.000000	0.023635
324.000000	0.019043
323.000000	0.025101
322.000000	0.026562
321.000000	0.026254
320.000000	0.025684
319.000000	0.026297
318.000000	0.025590
317.000000	0.027938
316.000000	0.029075
315.000000	0.030192
314.000000	0.030299
313.000000	0.032137
312.000000	0.034473
311.000000	0.035153
310.000000	0.038143
309.000000	0.038209
308.000000	0.043113
307.000000	0.044547
306.000000	0.045941
305.000000	0.050561
304.000000	0.052832
303.000000	0.054674
302.000000	0.060688
301.000000	0.062695
300.000000	0.067393
