PE UV       SUBTECH     SPECTRUM    ASCII       PEDS        4.00        
   -1
PETIT_33.Sample.Raw.asc
20/12/15
09:51:13.00
20/12/15
09:51:13.00
CNRS
RCC9511_2319_C
300.000000
1
Lambda 850
850L1011221
PerkinElmer UV WinLab 6.0.3.0730 / 1.61.00 Lambda 800

0
0
2
0
0
UV/VIS
1
1
1
RBeamAtt,SBeamAtt,150mm sphere / downward view
0
0
0
0
Fix
 
0
0.2
0
0
0
 
 
 
0
 
0
319.2
0
Front
50
 
S:100 R:100
 
0
0
0
 
0
 
 
 
0
 
 
0
0
0
0
0
 
 
 
 
0
0


#HDR
-1
-1
#GR
nm
A
1.0
0.0
800.000000
-1.000000
501
8
0.260058
-0.014278
#DATA
800.000000	-0.011968
799.000000	-0.011519
798.000000	-0.012673
797.000000	-0.011496
796.000000	-0.012156
795.000000	-0.014278
794.000000	-0.013313
793.000000	-0.013065
792.000000	-0.013476
791.000000	-0.011289
790.000000	-0.012272
789.000000	-0.012175
788.000000	-0.013252
787.000000	-0.012685
786.000000	-0.011953
785.000000	-0.013039
784.000000	-0.012035
783.000000	-0.012894
782.000000	-0.011783
781.000000	-0.011832
780.000000	-0.013440
779.000000	-0.014188
778.000000	-0.012257
777.000000	-0.013570
776.000000	-0.012049
775.000000	-0.011976
774.000000	-0.012242
773.000000	-0.012275
772.000000	-0.012939
771.000000	-0.011951
770.000000	-0.012119
769.000000	-0.010861
768.000000	-0.012933
767.000000	-0.011947
766.000000	-0.012395
765.000000	-0.012313
764.000000	-0.012228
763.000000	-0.012160
762.000000	-0.013808
761.000000	-0.012555
760.000000	-0.013223
759.000000	-0.013267
758.000000	-0.013489
757.000000	-0.012649
756.000000	-0.012973
755.000000	-0.012237
754.000000	-0.012204
753.000000	-0.013366
752.000000	-0.012765
751.000000	-0.013417
750.000000	-0.012150
749.000000	-0.011666
748.000000	-0.010961
747.000000	-0.012029
746.000000	-0.012666
745.000000	-0.012699
744.000000	-0.013646
743.000000	-0.012867
742.000000	-0.012050
741.000000	-0.011936
740.000000	-0.011626
739.000000	-0.013481
738.000000	-0.012500
737.000000	-0.012800
736.000000	-0.012549
735.000000	-0.012084
734.000000	-0.012312
733.000000	-0.012698
732.000000	-0.013599
731.000000	-0.013099
730.000000	-0.013297
729.000000	-0.013066
728.000000	-0.012799
727.000000	-0.012726
726.000000	-0.012308
725.000000	-0.012170
724.000000	-0.012589
723.000000	-0.012818
722.000000	-0.013273
721.000000	-0.012887
720.000000	-0.012657
719.000000	-0.012406
718.000000	-0.011908
717.000000	-0.011926
716.000000	-0.011977
715.000000	-0.011538
714.000000	-0.010128
713.000000	-0.010278
712.000000	-0.010020
711.000000	-0.009852
710.000000	-0.009382
709.000000	-0.008311
708.000000	-0.006970
707.000000	-0.005967
706.000000	-0.005172
705.000000	-0.003903
704.000000	-0.002200
703.000000	-0.000639
702.000000	0.001618
701.000000	0.004312
700.000000	0.007038
699.000000	0.010450
698.000000	0.014690
697.000000	0.019050
696.000000	0.023330
695.000000	0.028722
694.000000	0.034653
693.000000	0.041168
692.000000	0.048610
691.000000	0.056424
690.000000	0.064796
689.000000	0.073289
688.000000	0.081968
687.000000	0.090512
686.000000	0.098563
685.000000	0.106911
684.000000	0.114049
683.000000	0.119696
682.000000	0.125316
681.000000	0.129004
680.000000	0.131235
679.000000	0.133189
678.000000	0.134399
677.000000	0.134491
676.000000	0.133865
675.000000	0.133036
674.000000	0.131018
673.000000	0.128458
672.000000	0.125858
671.000000	0.122155
670.000000	0.117786
669.000000	0.112835
668.000000	0.107854
667.000000	0.101738
666.000000	0.095068
665.000000	0.088067
664.000000	0.080854
663.000000	0.073891
662.000000	0.067551
661.000000	0.062067
660.000000	0.056897
659.000000	0.051717
658.000000	0.047300
657.000000	0.043042
656.000000	0.039571
655.000000	0.037074
654.000000	0.034659
653.000000	0.033147
652.000000	0.031530
651.000000	0.030115
650.000000	0.029706
649.000000	0.029366
648.000000	0.029848
647.000000	0.029641
646.000000	0.029727
645.000000	0.030251
644.000000	0.030750
643.000000	0.031593
642.000000	0.032088
641.000000	0.032994
640.000000	0.034291
639.000000	0.034810
638.000000	0.035231
637.000000	0.036643
636.000000	0.037167
635.000000	0.037318
634.000000	0.037500
633.000000	0.038197
632.000000	0.038380
631.000000	0.038256
630.000000	0.038381
629.000000	0.038026
628.000000	0.037629
627.000000	0.037346
626.000000	0.037370
625.000000	0.037042
624.000000	0.036065
623.000000	0.035735
622.000000	0.035055
621.000000	0.034725
620.000000	0.034207
619.000000	0.032937
618.000000	0.032124
617.000000	0.031239
616.000000	0.030466
615.000000	0.029349
614.000000	0.028403
613.000000	0.027599
612.000000	0.026717
611.000000	0.025709
610.000000	0.024834
609.000000	0.023743
608.000000	0.022955
607.000000	0.021628
606.000000	0.021686
605.000000	0.021293
604.000000	0.020489
603.000000	0.020168
602.000000	0.019388
601.000000	0.019274
600.000000	0.019199
599.000000	0.019219
598.000000	0.018221
597.000000	0.018861
596.000000	0.018689
595.000000	0.018959
594.000000	0.018813
593.000000	0.018686
592.000000	0.018518
591.000000	0.019152
590.000000	0.018709
589.000000	0.018372
588.000000	0.018935
587.000000	0.018646
586.000000	0.017994
585.000000	0.018846
584.000000	0.018924
583.000000	0.018526
582.000000	0.018224
581.000000	0.018942
580.000000	0.019617
579.000000	0.020255
578.000000	0.020653
577.000000	0.021617
576.000000	0.022922
575.000000	0.024330
574.000000	0.025869
573.000000	0.027323
572.000000	0.028938
571.000000	0.030420
570.000000	0.031981
569.000000	0.034082
568.000000	0.036331
567.000000	0.038299
566.000000	0.039908
565.000000	0.041893
564.000000	0.044716
563.000000	0.046459
562.000000	0.048613
561.000000	0.051897
560.000000	0.054501
559.000000	0.057389
558.000000	0.060000
557.000000	0.062770
556.000000	0.065366
555.000000	0.067585
554.000000	0.069025
553.000000	0.071799
552.000000	0.072415
551.000000	0.075049
550.000000	0.074804
549.000000	0.075776
548.000000	0.076636
547.000000	0.076949
546.000000	0.077066
545.000000	0.076986
544.000000	0.077678
543.000000	0.076760
542.000000	0.076424
541.000000	0.076047
540.000000	0.075681
539.000000	0.075278
538.000000	0.075382
537.000000	0.074795
536.000000	0.074802
535.000000	0.074387
534.000000	0.074298
533.000000	0.074281
532.000000	0.073971
531.000000	0.073390
530.000000	0.073925
529.000000	0.073434
528.000000	0.074039
527.000000	0.074478
526.000000	0.075100
525.000000	0.076322
524.000000	0.076863
523.000000	0.077545
522.000000	0.079478
521.000000	0.081257
520.000000	0.083273
519.000000	0.084960
518.000000	0.087288
517.000000	0.090416
516.000000	0.093551
515.000000	0.096123
514.000000	0.100311
513.000000	0.103977
512.000000	0.107685
511.000000	0.111139
510.000000	0.115274
509.000000	0.119792
508.000000	0.124332
507.000000	0.128914
506.000000	0.134092
505.000000	0.138454
504.000000	0.142399
503.000000	0.147089
502.000000	0.152076
501.000000	0.155868
500.000000	0.159321
499.000000	0.162046
498.000000	0.165133
497.000000	0.167204
496.000000	0.169210
495.000000	0.170797
494.000000	0.172073
493.000000	0.173208
492.000000	0.173547
491.000000	0.173187
490.000000	0.172800
489.000000	0.172552
488.000000	0.171647
487.000000	0.171006
486.000000	0.169918
485.000000	0.169129
484.000000	0.168350
483.000000	0.167346
482.000000	0.166949
481.000000	0.166157
480.000000	0.166264
479.000000	0.165868
478.000000	0.166707
477.000000	0.167251
476.000000	0.167971
475.000000	0.169248
474.000000	0.171328
473.000000	0.172756
472.000000	0.173634
471.000000	0.175163
470.000000	0.177455
469.000000	0.179416
468.000000	0.181094
467.000000	0.183181
466.000000	0.184928
465.000000	0.186566
464.000000	0.187947
463.000000	0.190105
462.000000	0.191639
461.000000	0.193442
460.000000	0.195589
459.000000	0.197264
458.000000	0.198820
457.000000	0.201353
456.000000	0.203634
455.000000	0.206291
454.000000	0.210085
453.000000	0.213391
452.000000	0.217020
451.000000	0.220998
450.000000	0.225586
449.000000	0.230146
448.000000	0.235829
447.000000	0.240637
446.000000	0.244723
445.000000	0.248964
444.000000	0.252736
443.000000	0.256222
442.000000	0.258270
441.000000	0.259460
440.000000	0.260058
439.000000	0.260035
438.000000	0.259741
437.000000	0.258920
436.000000	0.257586
435.000000	0.255659
434.000000	0.254212
433.000000	0.251974
432.000000	0.249198
431.000000	0.247049
430.000000	0.244750
429.000000	0.242396
428.000000	0.240163
427.000000	0.237789
426.000000	0.235901
425.000000	0.234541
424.000000	0.233217
423.000000	0.232377
422.000000	0.231231
421.000000	0.229722
420.000000	0.228615
419.000000	0.227477
418.000000	0.225752
417.000000	0.223462
416.000000	0.220948
415.000000	0.218749
414.000000	0.215689
413.000000	0.212957
412.000000	0.209943
411.000000	0.206746
410.000000	0.203623
409.000000	0.199643
408.000000	0.196354
407.000000	0.193152
406.000000	0.189643
405.000000	0.186730
404.000000	0.183843
403.000000	0.181008
402.000000	0.178836
401.000000	0.176809
400.000000	0.174129
399.000000	0.172984
398.000000	0.172044
397.000000	0.170332
396.000000	0.168301
395.000000	0.166631
394.000000	0.166348
393.000000	0.165634
392.000000	0.164662
391.000000	0.164259
390.000000	0.162615
389.000000	0.160688
388.000000	0.159160
387.000000	0.158132
386.000000	0.157140
385.000000	0.155015
384.000000	0.153267
383.000000	0.151653
382.000000	0.150943
381.000000	0.148348
380.000000	0.145117
379.000000	0.142202
378.000000	0.136189
377.000000	0.131823
376.000000	0.129410
375.000000	0.129945
374.000000	0.125159
373.000000	0.120821
372.000000	0.120469
371.000000	0.119780
370.000000	0.115701
369.000000	0.114540
368.000000	0.114591
367.000000	0.112455
366.000000	0.110450
365.000000	0.110136
364.000000	0.109318
363.000000	0.108253
362.000000	0.106445
361.000000	0.105469
360.000000	0.106391
359.000000	0.105099
358.000000	0.104475
357.000000	0.103625
356.000000	0.101117
355.000000	0.099755
354.000000	0.101349
353.000000	0.100923
352.000000	0.102744
351.000000	0.101137
350.000000	0.098353
349.000000	0.099829
348.000000	0.103757
347.000000	0.104862
346.000000	0.104457
345.000000	0.106181
344.000000	0.105916
343.000000	0.106944
342.000000	0.110298
341.000000	0.108014
340.000000	0.110621
339.000000	0.109622
338.000000	0.109824
337.000000	0.107726
336.000000	0.109204
335.000000	0.107323
334.000000	0.108085
333.000000	0.108286
332.000000	0.103362
331.000000	0.104699
330.000000	0.104567
329.000000	0.101579
328.000000	0.102767
327.000000	0.101280
326.000000	0.107014
325.000000	0.102935
324.000000	0.099732
323.000000	0.107074
322.000000	0.108610
321.000000	0.107347
320.000000	0.103497
319.000000	0.106946
318.000000	0.105307
317.000000	0.104875
316.000000	0.106484
315.000000	0.108453
314.000000	0.107807
313.000000	0.111820
312.000000	0.112691
311.000000	0.112839
310.000000	0.116751
309.000000	0.117501
308.000000	0.124582
307.000000	0.124874
306.000000	0.129604
305.000000	0.136190
304.000000	0.141165
303.000000	0.145344
302.000000	0.153174
301.000000	0.160381
300.000000	0.167406
