PE UV       SUBTECH     SPECTRUM    ASCII       PEDS        4.00        
   -1
PETIT-56.Sample.Raw.asc
20/12/15
12:00:24.00
20/12/15
12:00:24.00
CNRS
Blanc05
300.000000
1
Lambda 850
850L1011221
PerkinElmer UV WinLab 6.0.3.0730 / 1.61.00 Lambda 800

0
0
2
0
0
UV/VIS
1
1
1
RBeamAtt,SBeamAtt,150mm sphere / downward view
0
0
0
0
Fix
 
0
0.2
0
0
0
 
 
 
0
 
0
319.2
0
Front
50
 
S:100 R:100
 
0
0
0
 
0
 
 
 
0
 
 
0
0
0
0
0
 
 
 
 
0
0


#HDR
-1
-1
#GR
nm
A
1.0
0.0
800.000000
-1.000000
501
8
0.010169
-0.022877
#DATA
800.000000	-0.014919
799.000000	-0.013339
798.000000	-0.014441
797.000000	-0.013456
796.000000	-0.014468
795.000000	-0.016097
794.000000	-0.013819
793.000000	-0.015483
792.000000	-0.014459
791.000000	-0.012892
790.000000	-0.012722
789.000000	-0.014243
788.000000	-0.014265
787.000000	-0.013740
786.000000	-0.014751
785.000000	-0.014096
784.000000	-0.013704
783.000000	-0.013651
782.000000	-0.012345
781.000000	-0.012779
780.000000	-0.014146
779.000000	-0.014677
778.000000	-0.012691
777.000000	-0.012773
776.000000	-0.013573
775.000000	-0.013342
774.000000	-0.013559
773.000000	-0.014522
772.000000	-0.012582
771.000000	-0.013351
770.000000	-0.013739
769.000000	-0.012489
768.000000	-0.013455
767.000000	-0.013856
766.000000	-0.013612
765.000000	-0.013589
764.000000	-0.013869
763.000000	-0.013532
762.000000	-0.014450
761.000000	-0.014062
760.000000	-0.013903
759.000000	-0.013757
758.000000	-0.014570
757.000000	-0.013957
756.000000	-0.013353
755.000000	-0.011789
754.000000	-0.013703
753.000000	-0.014794
752.000000	-0.014537
751.000000	-0.014713
750.000000	-0.013496
749.000000	-0.012387
748.000000	-0.012193
747.000000	-0.013207
746.000000	-0.014683
745.000000	-0.014925
744.000000	-0.014178
743.000000	-0.013820
742.000000	-0.013271
741.000000	-0.013962
740.000000	-0.013475
739.000000	-0.014546
738.000000	-0.014264
737.000000	-0.014663
736.000000	-0.014449
735.000000	-0.013924
734.000000	-0.014328
733.000000	-0.014225
732.000000	-0.014452
731.000000	-0.014839
730.000000	-0.014546
729.000000	-0.014117
728.000000	-0.014007
727.000000	-0.014058
726.000000	-0.014168
725.000000	-0.014692
724.000000	-0.014996
723.000000	-0.015403
722.000000	-0.015004
721.000000	-0.015188
720.000000	-0.014862
719.000000	-0.014558
718.000000	-0.014883
717.000000	-0.015113
716.000000	-0.014916
715.000000	-0.015154
714.000000	-0.015167
713.000000	-0.015515
712.000000	-0.015060
711.000000	-0.015293
710.000000	-0.015277
709.000000	-0.015333
708.000000	-0.014952
707.000000	-0.014932
706.000000	-0.014561
705.000000	-0.015074
704.000000	-0.015050
703.000000	-0.015152
702.000000	-0.015336
701.000000	-0.015175
700.000000	-0.014930
699.000000	-0.015222
698.000000	-0.015320
697.000000	-0.015402
696.000000	-0.015062
695.000000	-0.014808
694.000000	-0.015087
693.000000	-0.015373
692.000000	-0.014823
691.000000	-0.014726
690.000000	-0.014583
689.000000	-0.014448
688.000000	-0.014794
687.000000	-0.014971
686.000000	-0.015202
685.000000	-0.014641
684.000000	-0.014306
683.000000	-0.014868
682.000000	-0.014609
681.000000	-0.014414
680.000000	-0.015147
679.000000	-0.015196
678.000000	-0.014405
677.000000	-0.014339
676.000000	-0.014571
675.000000	-0.014546
674.000000	-0.014682
673.000000	-0.014831
672.000000	-0.014894
671.000000	-0.015028
670.000000	-0.014980
669.000000	-0.015082
668.000000	-0.014648
667.000000	-0.014625
666.000000	-0.014843
665.000000	-0.014666
664.000000	-0.014851
663.000000	-0.015188
662.000000	-0.014985
661.000000	-0.014811
660.000000	-0.014919
659.000000	-0.014944
658.000000	-0.014701
657.000000	-0.014889
656.000000	-0.014883
655.000000	-0.014754
654.000000	-0.015090
653.000000	-0.015048
652.000000	-0.015008
651.000000	-0.015508
650.000000	-0.015405
649.000000	-0.015072
648.000000	-0.015283
647.000000	-0.015555
646.000000	-0.015319
645.000000	-0.015278
644.000000	-0.015325
643.000000	-0.015196
642.000000	-0.015458
641.000000	-0.015413
640.000000	-0.014815
639.000000	-0.014878
638.000000	-0.015143
637.000000	-0.014615
636.000000	-0.014953
635.000000	-0.015418
634.000000	-0.015271
633.000000	-0.014995
632.000000	-0.015279
631.000000	-0.014958
630.000000	-0.014636
629.000000	-0.015031
628.000000	-0.015028
627.000000	-0.015183
626.000000	-0.015449
625.000000	-0.015565
624.000000	-0.015499
623.000000	-0.015135
622.000000	-0.015218
621.000000	-0.015403
620.000000	-0.014750
619.000000	-0.015154
618.000000	-0.015544
617.000000	-0.015445
616.000000	-0.015466
615.000000	-0.015719
614.000000	-0.015203
613.000000	-0.015018
612.000000	-0.015317
611.000000	-0.015204
610.000000	-0.014964
609.000000	-0.015491
608.000000	-0.014692
607.000000	-0.015190
606.000000	-0.015376
605.000000	-0.015066
604.000000	-0.015376
603.000000	-0.015063
602.000000	-0.015442
601.000000	-0.014757
600.000000	-0.015109
599.000000	-0.015189
598.000000	-0.015895
597.000000	-0.015467
596.000000	-0.015024
595.000000	-0.015144
594.000000	-0.015413
593.000000	-0.015842
592.000000	-0.015657
591.000000	-0.015213
590.000000	-0.015108
589.000000	-0.015606
588.000000	-0.015356
587.000000	-0.015607
586.000000	-0.015611
585.000000	-0.015462
584.000000	-0.015078
583.000000	-0.015626
582.000000	-0.015876
581.000000	-0.015877
580.000000	-0.015570
579.000000	-0.015583
578.000000	-0.015537
577.000000	-0.015352
576.000000	-0.015485
575.000000	-0.015460
574.000000	-0.015406
573.000000	-0.015361
572.000000	-0.015499
571.000000	-0.015271
570.000000	-0.015681
569.000000	-0.015536
568.000000	-0.015420
567.000000	-0.015558
566.000000	-0.015396
565.000000	-0.015528
564.000000	-0.015398
563.000000	-0.015252
562.000000	-0.015038
561.000000	-0.015301
560.000000	-0.015254
559.000000	-0.015221
558.000000	-0.015120
557.000000	-0.014497
556.000000	-0.014949
555.000000	-0.015434
554.000000	-0.014886
553.000000	-0.014362
552.000000	-0.015303
551.000000	-0.014653
550.000000	-0.015389
549.000000	-0.014989
548.000000	-0.014603
547.000000	-0.015132
546.000000	-0.014580
545.000000	-0.015126
544.000000	-0.014883
543.000000	-0.014618
542.000000	-0.014873
541.000000	-0.015200
540.000000	-0.014830
539.000000	-0.014822
538.000000	-0.014697
537.000000	-0.014650
536.000000	-0.014955
535.000000	-0.014647
534.000000	-0.014512
533.000000	-0.014767
532.000000	-0.015049
531.000000	-0.015263
530.000000	-0.015120
529.000000	-0.015053
528.000000	-0.014871
527.000000	-0.014970
526.000000	-0.014983
525.000000	-0.015039
524.000000	-0.015385
523.000000	-0.015311
522.000000	-0.014833
521.000000	-0.014925
520.000000	-0.015268
519.000000	-0.015328
518.000000	-0.015379
517.000000	-0.015861
516.000000	-0.015125
515.000000	-0.015097
514.000000	-0.014934
513.000000	-0.014827
512.000000	-0.014244
511.000000	-0.014953
510.000000	-0.015057
509.000000	-0.014940
508.000000	-0.015261
507.000000	-0.014649
506.000000	-0.014858
505.000000	-0.014579
504.000000	-0.014696
503.000000	-0.014727
502.000000	-0.014492
501.000000	-0.014363
500.000000	-0.014349
499.000000	-0.014773
498.000000	-0.014360
497.000000	-0.014315
496.000000	-0.014270
495.000000	-0.014620
494.000000	-0.014879
493.000000	-0.014286
492.000000	-0.014067
491.000000	-0.014332
490.000000	-0.014519
489.000000	-0.014291
488.000000	-0.014632
487.000000	-0.014346
486.000000	-0.014286
485.000000	-0.014238
484.000000	-0.013962
483.000000	-0.014295
482.000000	-0.014190
481.000000	-0.014509
480.000000	-0.014463
479.000000	-0.014873
478.000000	-0.014767
477.000000	-0.014697
476.000000	-0.014532
475.000000	-0.014411
474.000000	-0.014162
473.000000	-0.014540
472.000000	-0.015113
471.000000	-0.015579
470.000000	-0.015015
469.000000	-0.015000
468.000000	-0.015010
467.000000	-0.014912
466.000000	-0.015093
465.000000	-0.015025
464.000000	-0.015089
463.000000	-0.015118
462.000000	-0.015468
461.000000	-0.015287
460.000000	-0.015013
459.000000	-0.014899
458.000000	-0.015019
457.000000	-0.014868
456.000000	-0.015048
455.000000	-0.015614
454.000000	-0.015104
453.000000	-0.015263
452.000000	-0.015197
451.000000	-0.014962
450.000000	-0.015133
449.000000	-0.015260
448.000000	-0.014900
447.000000	-0.014745
446.000000	-0.014855
445.000000	-0.014656
444.000000	-0.014869
443.000000	-0.014581
442.000000	-0.014868
441.000000	-0.015296
440.000000	-0.015596
439.000000	-0.015845
438.000000	-0.014849
437.000000	-0.015063
436.000000	-0.015740
435.000000	-0.015385
434.000000	-0.014906
433.000000	-0.015030
432.000000	-0.015414
431.000000	-0.015059
430.000000	-0.014755
429.000000	-0.014627
428.000000	-0.014868
427.000000	-0.015350
426.000000	-0.014969
425.000000	-0.015100
424.000000	-0.015685
423.000000	-0.015285
422.000000	-0.015052
421.000000	-0.015053
420.000000	-0.015692
419.000000	-0.016241
418.000000	-0.015538
417.000000	-0.015459
416.000000	-0.016212
415.000000	-0.016139
414.000000	-0.016291
413.000000	-0.016307
412.000000	-0.016146
411.000000	-0.016358
410.000000	-0.016708
409.000000	-0.016476
408.000000	-0.015787
407.000000	-0.016161
406.000000	-0.017075
405.000000	-0.017149
404.000000	-0.016895
403.000000	-0.016926
402.000000	-0.017014
401.000000	-0.017066
400.000000	-0.017493
399.000000	-0.017528
398.000000	-0.016891
397.000000	-0.016772
396.000000	-0.017370
395.000000	-0.018020
394.000000	-0.017592
393.000000	-0.017249
392.000000	-0.017805
391.000000	-0.017965
390.000000	-0.017528
389.000000	-0.017874
388.000000	-0.017813
387.000000	-0.018270
386.000000	-0.018230
385.000000	-0.018316
384.000000	-0.018534
383.000000	-0.017799
382.000000	-0.017601
381.000000	-0.017868
380.000000	-0.018782
379.000000	-0.018312
378.000000	-0.018683
377.000000	-0.017390
376.000000	-0.017041
375.000000	-0.017576
374.000000	-0.018918
373.000000	-0.019145
372.000000	-0.018859
371.000000	-0.019602
370.000000	-0.019793
369.000000	-0.018093
368.000000	-0.019278
367.000000	-0.018558
366.000000	-0.019708
365.000000	-0.019063
364.000000	-0.018916
363.000000	-0.018530
362.000000	-0.018942
361.000000	-0.019540
360.000000	-0.019167
359.000000	-0.018792
358.000000	-0.018897
357.000000	-0.019451
356.000000	-0.019139
355.000000	-0.019781
354.000000	-0.020349
353.000000	-0.019226
352.000000	-0.021076
351.000000	-0.021694
350.000000	-0.021672
349.000000	-0.020449
348.000000	-0.021068
347.000000	-0.020223
346.000000	-0.021583
345.000000	-0.021689
344.000000	-0.018678
343.000000	-0.019462
342.000000	-0.020280
341.000000	-0.022125
340.000000	-0.018253
339.000000	-0.020168
338.000000	-0.022877
337.000000	-0.019956
336.000000	-0.017382
335.000000	-0.018959
334.000000	-0.018298
333.000000	-0.017749
332.000000	-0.019755
331.000000	-0.019911
330.000000	-0.021650
329.000000	-0.021443
328.000000	-0.020118
327.000000	-0.016833
326.000000	-0.016672
325.000000	-0.017896
324.000000	-0.017867
323.000000	-0.017861
322.000000	-0.016421
321.000000	-0.017030
320.000000	-0.016817
319.000000	-0.016041
318.000000	-0.015481
317.000000	-0.015386
316.000000	-0.014388
315.000000	-0.011837
314.000000	-0.010233
313.000000	-0.010925
312.000000	-0.011978
311.000000	-0.008246
310.000000	-0.006868
309.000000	-0.005668
308.000000	-0.002754
307.000000	-0.002118
306.000000	0.000325
305.000000	0.003065
304.000000	0.004478
303.000000	0.003816
302.000000	0.007975
301.000000	0.010169
300.000000	0.010098
