PE UV       SUBTECH     SPECTRUM    ASCII       PEDS        4.00        
   -1
PETIT_46.Sample.Raw.asc
20/12/15
11:06:20.00
20/12/15
11:06:20.00
CNRS
RCC0076_B_D0
300.000000
1
Lambda 850
850L1011221
PerkinElmer UV WinLab 6.0.3.0730 / 1.61.00 Lambda 800

0
0
2
0
0
UV/VIS
1
1
1
RBeamAtt,SBeamAtt,150mm sphere / downward view
0
0
0
0
Fix
 
0
0.2
0
0
0
 
 
 
0
 
0
319.2
0
Front
50
 
S:100 R:100
 
0
0
0
 
0
 
 
 
0
 
 
0
0
0
0
0
 
 
 
 
0
0


#HDR
-1
-1
#GR
nm
A
1.0
0.0
800.000000
-1.000000
501
8
0.382966
-0.012381
#DATA
800.000000	-0.010486
799.000000	-0.010760
798.000000	-0.010197
797.000000	-0.010020
796.000000	-0.011554
795.000000	-0.012167
794.000000	-0.010007
793.000000	-0.011760
792.000000	-0.010702
791.000000	-0.009788
790.000000	-0.010775
789.000000	-0.011199
788.000000	-0.009973
787.000000	-0.011120
786.000000	-0.012100
785.000000	-0.012381
784.000000	-0.011015
783.000000	-0.011416
782.000000	-0.009592
781.000000	-0.010492
780.000000	-0.011864
779.000000	-0.011071
778.000000	-0.011322
777.000000	-0.011634
776.000000	-0.010956
775.000000	-0.009923
774.000000	-0.010194
773.000000	-0.011654
772.000000	-0.011249
771.000000	-0.011448
770.000000	-0.011349
769.000000	-0.009689
768.000000	-0.010508
767.000000	-0.010251
766.000000	-0.011128
765.000000	-0.010615
764.000000	-0.011437
763.000000	-0.010786
762.000000	-0.011490
761.000000	-0.011382
760.000000	-0.011891
759.000000	-0.010298
758.000000	-0.011295
757.000000	-0.010714
756.000000	-0.011019
755.000000	-0.009868
754.000000	-0.010485
753.000000	-0.011698
752.000000	-0.011377
751.000000	-0.011689
750.000000	-0.010537
749.000000	-0.009724
748.000000	-0.009369
747.000000	-0.010548
746.000000	-0.010870
745.000000	-0.010505
744.000000	-0.011158
743.000000	-0.010537
742.000000	-0.010305
741.000000	-0.009984
740.000000	-0.009490
739.000000	-0.010822
738.000000	-0.010313
737.000000	-0.011018
736.000000	-0.010207
735.000000	-0.010358
734.000000	-0.009892
733.000000	-0.008982
732.000000	-0.009880
731.000000	-0.009747
730.000000	-0.009276
729.000000	-0.009172
728.000000	-0.009426
727.000000	-0.008710
726.000000	-0.007746
725.000000	-0.008323
724.000000	-0.007938
723.000000	-0.007464
722.000000	-0.006777
721.000000	-0.006390
720.000000	-0.005862
719.000000	-0.004523
718.000000	-0.004296
717.000000	-0.003758
716.000000	-0.002463
715.000000	-0.001128
714.000000	0.000525
713.000000	0.002184
712.000000	0.003984
711.000000	0.005773
710.000000	0.007813
709.000000	0.010380
708.000000	0.013597
707.000000	0.017177
706.000000	0.021556
705.000000	0.025750
704.000000	0.031014
703.000000	0.036928
702.000000	0.043365
701.000000	0.050358
700.000000	0.059279
699.000000	0.068361
698.000000	0.078776
697.000000	0.090606
696.000000	0.103154
695.000000	0.117276
694.000000	0.131626
693.000000	0.146991
692.000000	0.163028
691.000000	0.178811
690.000000	0.194355
689.000000	0.209065
688.000000	0.222765
687.000000	0.235423
686.000000	0.246916
685.000000	0.257693
684.000000	0.266790
683.000000	0.273977
682.000000	0.280750
681.000000	0.286384
680.000000	0.290670
679.000000	0.294745
678.000000	0.298553
677.000000	0.301750
676.000000	0.304329
675.000000	0.305810
674.000000	0.306228
673.000000	0.305724
672.000000	0.303709
671.000000	0.300445
670.000000	0.296142
669.000000	0.290836
668.000000	0.284316
667.000000	0.276490
666.000000	0.267840
665.000000	0.258396
664.000000	0.248441
663.000000	0.238192
662.000000	0.227746
661.000000	0.217108
660.000000	0.206376
659.000000	0.195198
658.000000	0.184642
657.000000	0.174375
656.000000	0.164566
655.000000	0.155924
654.000000	0.148257
653.000000	0.141774
652.000000	0.136839
651.000000	0.132214
650.000000	0.128358
649.000000	0.126277
648.000000	0.124878
647.000000	0.123587
646.000000	0.123443
645.000000	0.123882
644.000000	0.124914
643.000000	0.126695
642.000000	0.128109
641.000000	0.129373
640.000000	0.131616
639.000000	0.133333
638.000000	0.134488
637.000000	0.136264
636.000000	0.137967
635.000000	0.138265
634.000000	0.138887
633.000000	0.139445
632.000000	0.139449
631.000000	0.139538
630.000000	0.139238
629.000000	0.138588
628.000000	0.138013
627.000000	0.137312
626.000000	0.137111
625.000000	0.136684
624.000000	0.135913
623.000000	0.135251
622.000000	0.134742
621.000000	0.133889
620.000000	0.132446
619.000000	0.131224
618.000000	0.129465
617.000000	0.128095
616.000000	0.125955
615.000000	0.123462
614.000000	0.120916
613.000000	0.118763
612.000000	0.116025
611.000000	0.113116
610.000000	0.110778
609.000000	0.107575
608.000000	0.105313
607.000000	0.102171
606.000000	0.100474
605.000000	0.099052
604.000000	0.096777
603.000000	0.095644
602.000000	0.094418
601.000000	0.094071
600.000000	0.093856
599.000000	0.094038
598.000000	0.093846
597.000000	0.094522
596.000000	0.095150
595.000000	0.096129
594.000000	0.097145
593.000000	0.097775
592.000000	0.098522
591.000000	0.099822
590.000000	0.100709
589.000000	0.101161
588.000000	0.101667
587.000000	0.102522
586.000000	0.101965
585.000000	0.102485
584.000000	0.102453
583.000000	0.102491
582.000000	0.101611
581.000000	0.101648
580.000000	0.101519
579.000000	0.100947
578.000000	0.100933
577.000000	0.100301
576.000000	0.100091
575.000000	0.100670
574.000000	0.100561
573.000000	0.100207
572.000000	0.100419
571.000000	0.100524
570.000000	0.101161
569.000000	0.101317
568.000000	0.102679
567.000000	0.103693
566.000000	0.104844
565.000000	0.106444
564.000000	0.108576
563.000000	0.109824
562.000000	0.111874
561.000000	0.115275
560.000000	0.117420
559.000000	0.120032
558.000000	0.123260
557.000000	0.126576
556.000000	0.129251
555.000000	0.131808
554.000000	0.135018
553.000000	0.138298
552.000000	0.140520
551.000000	0.144529
550.000000	0.146670
549.000000	0.149643
548.000000	0.152691
547.000000	0.155337
546.000000	0.158042
545.000000	0.160126
544.000000	0.163147
543.000000	0.165253
542.000000	0.167841
541.000000	0.170160
540.000000	0.172056
539.000000	0.174386
538.000000	0.176630
537.000000	0.178427
536.000000	0.180603
535.000000	0.182260
534.000000	0.184049
533.000000	0.185862
532.000000	0.187625
531.000000	0.189026
530.000000	0.190878
529.000000	0.192384
528.000000	0.194133
527.000000	0.195863
526.000000	0.197855
525.000000	0.198956
524.000000	0.200736
523.000000	0.202054
522.000000	0.203961
521.000000	0.205273
520.000000	0.207152
519.000000	0.209918
518.000000	0.211611
517.000000	0.213959
516.000000	0.216060
515.000000	0.218749
514.000000	0.221988
513.000000	0.224576
512.000000	0.226893
511.000000	0.229232
510.000000	0.232061
509.000000	0.235880
508.000000	0.239416
507.000000	0.242665
506.000000	0.246029
505.000000	0.248709
504.000000	0.252172
503.000000	0.255381
502.000000	0.259658
501.000000	0.262824
500.000000	0.266322
499.000000	0.269328
498.000000	0.272000
497.000000	0.274468
496.000000	0.277444
495.000000	0.278980
494.000000	0.280640
493.000000	0.282505
492.000000	0.283763
491.000000	0.284534
490.000000	0.284888
489.000000	0.285228
488.000000	0.284674
487.000000	0.284293
486.000000	0.284198
485.000000	0.283859
484.000000	0.283189
483.000000	0.283104
482.000000	0.283465
481.000000	0.282694
480.000000	0.282747
479.000000	0.282865
478.000000	0.283694
477.000000	0.285082
476.000000	0.286880
475.000000	0.288742
474.000000	0.291114
473.000000	0.293758
472.000000	0.296425
471.000000	0.299108
470.000000	0.302065
469.000000	0.305285
468.000000	0.309165
467.000000	0.312064
466.000000	0.315129
465.000000	0.317773
464.000000	0.320673
463.000000	0.322974
462.000000	0.325712
461.000000	0.327954
460.000000	0.329824
459.000000	0.331623
458.000000	0.333182
457.000000	0.334763
456.000000	0.336715
455.000000	0.338683
454.000000	0.341858
453.000000	0.343971
452.000000	0.346990
451.000000	0.350197
450.000000	0.352979
449.000000	0.355789
448.000000	0.360048
447.000000	0.364247
446.000000	0.367135
445.000000	0.370430
444.000000	0.373749
443.000000	0.376524
442.000000	0.378576
441.000000	0.380037
440.000000	0.381580
439.000000	0.382358
438.000000	0.382815
437.000000	0.382966
436.000000	0.382597
435.000000	0.381827
434.000000	0.381039
433.000000	0.380263
432.000000	0.379161
431.000000	0.378082
430.000000	0.376928
429.000000	0.375621
428.000000	0.374680
427.000000	0.373555
426.000000	0.372610
425.000000	0.372427
424.000000	0.372131
423.000000	0.371984
422.000000	0.372089
421.000000	0.371871
420.000000	0.371004
419.000000	0.371065
418.000000	0.371438
417.000000	0.370837
416.000000	0.370054
415.000000	0.369625
414.000000	0.367780
413.000000	0.366066
412.000000	0.364006
411.000000	0.361381
410.000000	0.359522
409.000000	0.357194
408.000000	0.354911
407.000000	0.351873
406.000000	0.348931
405.000000	0.346759
404.000000	0.344261
403.000000	0.341542
402.000000	0.339799
401.000000	0.338051
400.000000	0.335995
399.000000	0.334634
398.000000	0.333668
397.000000	0.332799
396.000000	0.331885
395.000000	0.330395
394.000000	0.329913
393.000000	0.329202
392.000000	0.328099
391.000000	0.327738
390.000000	0.327388
389.000000	0.326909
388.000000	0.326560
387.000000	0.325621
386.000000	0.324226
385.000000	0.323952
384.000000	0.323461
383.000000	0.323123
382.000000	0.322310
381.000000	0.321828
380.000000	0.319552
379.000000	0.318268
378.000000	0.313301
377.000000	0.310616
376.000000	0.306832
375.000000	0.306242
374.000000	0.303830
373.000000	0.302432
372.000000	0.301150
371.000000	0.300781
370.000000	0.298705
369.000000	0.297536
368.000000	0.296666
367.000000	0.294877
366.000000	0.296149
365.000000	0.295296
364.000000	0.295330
363.000000	0.295470
362.000000	0.293360
361.000000	0.294708
360.000000	0.294309
359.000000	0.293634
358.000000	0.294354
357.000000	0.293765
356.000000	0.295409
355.000000	0.292790
354.000000	0.296558
353.000000	0.295467
352.000000	0.295837
351.000000	0.297856
350.000000	0.296977
349.000000	0.299236
348.000000	0.301539
347.000000	0.305378
346.000000	0.307128
345.000000	0.307947
344.000000	0.310900
343.000000	0.312510
342.000000	0.314003
341.000000	0.312436
340.000000	0.315940
339.000000	0.318997
338.000000	0.317892
337.000000	0.317774
336.000000	0.319224
335.000000	0.319228
334.000000	0.318718
333.000000	0.317439
332.000000	0.320989
331.000000	0.317721
330.000000	0.318110
329.000000	0.316292
328.000000	0.317738
327.000000	0.318445
326.000000	0.319036
325.000000	0.320745
324.000000	0.321689
323.000000	0.322267
322.000000	0.324511
321.000000	0.323917
320.000000	0.321378
319.000000	0.322469
318.000000	0.321307
317.000000	0.321943
316.000000	0.324143
315.000000	0.325061
314.000000	0.324972
313.000000	0.327528
312.000000	0.327076
311.000000	0.329361
310.000000	0.331086
309.000000	0.334972
308.000000	0.337369
307.000000	0.339630
306.000000	0.342008
305.000000	0.344718
304.000000	0.348143
303.000000	0.352265
302.000000	0.358927
301.000000	0.362361
300.000000	0.367743
