PE UV       SUBTECH     SPECTRUM    ASCII       PEDS        4.00        
   -1
100% or 0 Absorbance Baseline.Correction.Raw.asc
20/12/16
09:19:20.00
20/12/16
09:19:20.00
CNRS

300.000000
1
Lambda 850
850L1011221
PerkinElmer UV WinLab 6.0.3.0730 / 1.61.00 Lambda 800

0
0
2
0
0
UV/VIS
0
1
1
RBeamAtt,SBeamAtt,150mm sphere / downward view
0
0
0
0
Fix
 
0
0.2
0
0
0
 
 
 
0
 
0
319.2
0
Front
50
 
S:100 R:100
 
0
0
0
 
0
 
 
 
0
 
 
0
0
0
0
0
 
 
 
 
0
0


#HDR
-1
-1
#GR
nm
A
1.0
0.0
800.000000
-1.000000
501
8
0.022238
-0.068646
#DATA
800.000000	-0.068646
799.000000	-0.067564
798.000000	-0.067251
797.000000	-0.067532
796.000000	-0.067865
795.000000	-0.066665
794.000000	-0.066706
793.000000	-0.065979
792.000000	-0.066481
791.000000	-0.065618
790.000000	-0.065595
789.000000	-0.064769
788.000000	-0.064877
787.000000	-0.065765
786.000000	-0.064462
785.000000	-0.063772
784.000000	-0.064286
783.000000	-0.063605
782.000000	-0.063125
781.000000	-0.062436
780.000000	-0.063174
779.000000	-0.062556
778.000000	-0.062319
777.000000	-0.062978
776.000000	-0.062607
775.000000	-0.061923
774.000000	-0.061237
773.000000	-0.061158
772.000000	-0.060819
771.000000	-0.060816
770.000000	-0.060508
769.000000	-0.060110
768.000000	-0.058992
767.000000	-0.059712
766.000000	-0.059215
765.000000	-0.058798
764.000000	-0.058981
763.000000	-0.058472
762.000000	-0.058745
761.000000	-0.058093
760.000000	-0.057659
759.000000	-0.057752
758.000000	-0.057599
757.000000	-0.058031
756.000000	-0.057086
755.000000	-0.056416
754.000000	-0.056461
753.000000	-0.056238
752.000000	-0.055883
751.000000	-0.055949
750.000000	-0.055452
749.000000	-0.055668
748.000000	-0.054993
747.000000	-0.055138
746.000000	-0.054994
745.000000	-0.054451
744.000000	-0.054278
743.000000	-0.053788
742.000000	-0.054612
741.000000	-0.053858
740.000000	-0.053649
739.000000	-0.053314
738.000000	-0.053139
737.000000	-0.052866
736.000000	-0.052573
735.000000	-0.052908
734.000000	-0.051814
733.000000	-0.051720
732.000000	-0.052048
731.000000	-0.052376
730.000000	-0.051556
729.000000	-0.050917
728.000000	-0.051499
727.000000	-0.051202
726.000000	-0.050889
725.000000	-0.051214
724.000000	-0.051373
723.000000	-0.050815
722.000000	-0.050680
721.000000	-0.050252
720.000000	-0.049740
719.000000	-0.050046
718.000000	-0.050035
717.000000	-0.049733
716.000000	-0.049572
715.000000	-0.049485
714.000000	-0.049645
713.000000	-0.049393
712.000000	-0.049506
711.000000	-0.049337
710.000000	-0.048818
709.000000	-0.048861
708.000000	-0.048261
707.000000	-0.048111
706.000000	-0.048902
705.000000	-0.048335
704.000000	-0.048020
703.000000	-0.048233
702.000000	-0.048199
701.000000	-0.048068
700.000000	-0.048137
699.000000	-0.047663
698.000000	-0.047208
697.000000	-0.047103
696.000000	-0.047114
695.000000	-0.047287
694.000000	-0.047104
693.000000	-0.046697
692.000000	-0.046849
691.000000	-0.046744
690.000000	-0.046490
689.000000	-0.046144
688.000000	-0.045818
687.000000	-0.045972
686.000000	-0.045753
685.000000	-0.045963
684.000000	-0.045860
683.000000	-0.045611
682.000000	-0.045576
681.000000	-0.045362
680.000000	-0.045028
679.000000	-0.044878
678.000000	-0.044809
677.000000	-0.044795
676.000000	-0.044985
675.000000	-0.045087
674.000000	-0.044968
673.000000	-0.044856
672.000000	-0.044592
671.000000	-0.044470
670.000000	-0.044317
669.000000	-0.044146
668.000000	-0.043896
667.000000	-0.043891
666.000000	-0.044070
665.000000	-0.044103
664.000000	-0.044011
663.000000	-0.043782
662.000000	-0.043618
661.000000	-0.043863
660.000000	-0.043908
659.000000	-0.043829
658.000000	-0.043567
657.000000	-0.043127
656.000000	-0.043028
655.000000	-0.043439
654.000000	-0.043362
653.000000	-0.043253
652.000000	-0.043175
651.000000	-0.042871
650.000000	-0.042774
649.000000	-0.042710
648.000000	-0.042685
647.000000	-0.042544
646.000000	-0.042472
645.000000	-0.042143
644.000000	-0.042407
643.000000	-0.042422
642.000000	-0.042161
641.000000	-0.042442
640.000000	-0.042398
639.000000	-0.042160
638.000000	-0.042225
637.000000	-0.042177
636.000000	-0.041805
635.000000	-0.041798
634.000000	-0.041938
633.000000	-0.042148
632.000000	-0.042109
631.000000	-0.041613
630.000000	-0.041698
629.000000	-0.041888
628.000000	-0.041610
627.000000	-0.041416
626.000000	-0.041376
625.000000	-0.041104
624.000000	-0.041257
623.000000	-0.041094
622.000000	-0.040998
621.000000	-0.041438
620.000000	-0.041391
619.000000	-0.041330
618.000000	-0.041034
617.000000	-0.041293
616.000000	-0.041051
615.000000	-0.040898
614.000000	-0.040840
613.000000	-0.040796
612.000000	-0.040690
611.000000	-0.040772
610.000000	-0.040947
609.000000	-0.040289
608.000000	-0.040390
607.000000	-0.040484
606.000000	-0.040625
605.000000	-0.040607
604.000000	-0.040240
603.000000	-0.040538
602.000000	-0.040616
601.000000	-0.040610
600.000000	-0.040336
599.000000	-0.040410
598.000000	-0.040010
597.000000	-0.039516
596.000000	-0.039789
595.000000	-0.040040
594.000000	-0.040130
593.000000	-0.040106
592.000000	-0.039633
591.000000	-0.039787
590.000000	-0.039923
589.000000	-0.040055
588.000000	-0.039665
587.000000	-0.039515
586.000000	-0.039793
585.000000	-0.039509
584.000000	-0.039397
583.000000	-0.039563
582.000000	-0.039662
581.000000	-0.039508
580.000000	-0.039345
579.000000	-0.039171
578.000000	-0.039163
577.000000	-0.039683
576.000000	-0.039314
575.000000	-0.039197
574.000000	-0.039260
573.000000	-0.039255
572.000000	-0.039402
571.000000	-0.039205
570.000000	-0.039140
569.000000	-0.038999
568.000000	-0.038967
567.000000	-0.039256
566.000000	-0.039244
565.000000	-0.038889
564.000000	-0.038928
563.000000	-0.038752
562.000000	-0.038603
561.000000	-0.039211
560.000000	-0.039255
559.000000	-0.039253
558.000000	-0.039157
557.000000	-0.039264
556.000000	-0.039133
555.000000	-0.038918
554.000000	-0.039072
553.000000	-0.038732
552.000000	-0.038685
551.000000	-0.038720
550.000000	-0.038317
549.000000	-0.038789
548.000000	-0.038720
547.000000	-0.038630
546.000000	-0.038803
545.000000	-0.038464
544.000000	-0.038881
543.000000	-0.038412
542.000000	-0.038428
541.000000	-0.037962
540.000000	-0.038025
539.000000	-0.037756
538.000000	-0.037984
537.000000	-0.038077
536.000000	-0.037892
535.000000	-0.037816
534.000000	-0.037598
533.000000	-0.037337
532.000000	-0.037445
531.000000	-0.037370
530.000000	-0.036812
529.000000	-0.036804
528.000000	-0.037040
527.000000	-0.036812
526.000000	-0.036779
525.000000	-0.036508
524.000000	-0.036067
523.000000	-0.036083
522.000000	-0.035601
521.000000	-0.035838
520.000000	-0.035608
519.000000	-0.035389
518.000000	-0.035495
517.000000	-0.035615
516.000000	-0.035365
515.000000	-0.035115
514.000000	-0.035244
513.000000	-0.034983
512.000000	-0.034736
511.000000	-0.034582
510.000000	-0.034874
509.000000	-0.034513
508.000000	-0.034356
507.000000	-0.034498
506.000000	-0.034233
505.000000	-0.034056
504.000000	-0.034460
503.000000	-0.034404
502.000000	-0.034391
501.000000	-0.034424
500.000000	-0.034478
499.000000	-0.034299
498.000000	-0.034053
497.000000	-0.033861
496.000000	-0.033607
495.000000	-0.034082
494.000000	-0.033867
493.000000	-0.033636
492.000000	-0.033876
491.000000	-0.033902
490.000000	-0.033611
489.000000	-0.033594
488.000000	-0.033620
487.000000	-0.033625
486.000000	-0.033257
485.000000	-0.033137
484.000000	-0.033313
483.000000	-0.032889
482.000000	-0.032620
481.000000	-0.031936
480.000000	-0.031925
479.000000	-0.031633
478.000000	-0.031457
477.000000	-0.031270
476.000000	-0.031370
475.000000	-0.031138
474.000000	-0.030790
473.000000	-0.030641
472.000000	-0.030418
471.000000	-0.030415
470.000000	-0.030449
469.000000	-0.030313
468.000000	-0.030450
467.000000	-0.030108
466.000000	-0.029863
465.000000	-0.030083
464.000000	-0.030322
463.000000	-0.030143
462.000000	-0.029810
461.000000	-0.029390
460.000000	-0.029426
459.000000	-0.029430
458.000000	-0.029423
457.000000	-0.029238
456.000000	-0.029121
455.000000	-0.028838
454.000000	-0.028541
453.000000	-0.028439
452.000000	-0.028109
451.000000	-0.028094
450.000000	-0.027981
449.000000	-0.027816
448.000000	-0.027858
447.000000	-0.027454
446.000000	-0.027006
445.000000	-0.026514
444.000000	-0.026520
443.000000	-0.026438
442.000000	-0.026100
441.000000	-0.025730
440.000000	-0.025362
439.000000	-0.025124
438.000000	-0.024801
437.000000	-0.024579
436.000000	-0.024160
435.000000	-0.023721
434.000000	-0.023682
433.000000	-0.023605
432.000000	-0.023260
431.000000	-0.022778
430.000000	-0.022846
429.000000	-0.022753
428.000000	-0.022355
427.000000	-0.022285
426.000000	-0.022077
425.000000	-0.021542
424.000000	-0.021155
423.000000	-0.020812
422.000000	-0.020463
421.000000	-0.020006
420.000000	-0.019953
419.000000	-0.019715
418.000000	-0.019139
417.000000	-0.018871
416.000000	-0.018692
415.000000	-0.018427
414.000000	-0.018386
413.000000	-0.018026
412.000000	-0.017538
411.000000	-0.017454
410.000000	-0.016919
409.000000	-0.016509
408.000000	-0.016323
407.000000	-0.015865
406.000000	-0.015339
405.000000	-0.014843
404.000000	-0.014471
403.000000	-0.013996
402.000000	-0.013843
401.000000	-0.013993
400.000000	-0.013709
399.000000	-0.013067
398.000000	-0.012400
397.000000	-0.011803
396.000000	-0.011609
395.000000	-0.011680
394.000000	-0.011147
393.000000	-0.010661
392.000000	-0.010747
391.000000	-0.009932
390.000000	-0.009439
389.000000	-0.009053
388.000000	-0.008425
387.000000	-0.008180
386.000000	-0.008241
385.000000	-0.007531
384.000000	-0.006781
383.000000	-0.007067
382.000000	-0.007383
381.000000	-0.006302
380.000000	-0.005163
379.000000	-0.006050
378.000000	-0.009158
377.000000	-0.008533
376.000000	-0.008104
375.000000	-0.007856
374.000000	-0.006036
373.000000	-0.006648
372.000000	-0.006057
371.000000	-0.004651
370.000000	-0.003872
369.000000	-0.004504
368.000000	-0.003882
367.000000	-0.003158
366.000000	-0.002657
365.000000	-0.001569
364.000000	-0.002746
363.000000	-0.003204
362.000000	-0.003434
361.000000	-0.001318
360.000000	-0.000590
359.000000	0.000344
358.000000	0.000831
357.000000	0.001209
356.000000	0.001300
355.000000	-0.000115
354.000000	0.000952
353.000000	0.002889
352.000000	0.001758
351.000000	0.004198
350.000000	0.003712
349.000000	0.004784
348.000000	0.004957
347.000000	0.005710
346.000000	0.005614
345.000000	0.005476
344.000000	0.006556
343.000000	0.007769
342.000000	0.007984
341.000000	0.007200
340.000000	0.008238
339.000000	0.008982
338.000000	0.006978
337.000000	0.008810
336.000000	0.010843
335.000000	0.009720
334.000000	0.012182
333.000000	0.010135
332.000000	0.010411
331.000000	0.011545
330.000000	0.012826
329.000000	0.013614
328.000000	0.013407
327.000000	0.010555
326.000000	0.013481
325.000000	0.017126
324.000000	0.012042
323.000000	0.013896
322.000000	0.016121
321.000000	0.014364
320.000000	0.013866
319.000000	0.015732
318.000000	0.016389
317.000000	0.017363
316.000000	0.017502
315.000000	0.017561
314.000000	0.018138
313.000000	0.017082
312.000000	0.019356
311.000000	0.018617
310.000000	0.018178
309.000000	0.018578
308.000000	0.019888
307.000000	0.021705
306.000000	0.020249
305.000000	0.020430
304.000000	0.020715
303.000000	0.020033
302.000000	0.020515
301.000000	0.021543
300.000000	0.022238
