PE UV       SUBTECH     SPECTRUM    ASCII       PEDS        4.00        
   -1
PETIT_86.Sample.Raw.asc
20/12/16
11:56:59.00
20/12/16
11:56:59.00
CNRS
RCC0156_C_D2
300.000000
1
Lambda 850
850L1011221
PerkinElmer UV WinLab 6.0.3.0730 / 1.61.00 Lambda 800

0
0
2
0
0
UV/VIS
1
1
1
RBeamAtt,SBeamAtt,150mm sphere / downward view
0
0
0
0
Fix
 
0
0.2
0
0
0
 
 
 
0
 
0
319.2
0
Front
50
 
S:100 R:100
 
0
0
0
 
0
 
 
 
0
 
 
0
0
0
0
0
 
 
 
 
0
0


#HDR
-1
-1
#GR
nm
A
1.0
0.0
800.000000
-1.000000
501
8
0.199013
-0.014629
#DATA
800.000000	-0.011401
799.000000	-0.012648
798.000000	-0.012722
797.000000	-0.012895
796.000000	-0.011520
795.000000	-0.013002
794.000000	-0.012289
793.000000	-0.014047
792.000000	-0.012136
791.000000	-0.012719
790.000000	-0.012925
789.000000	-0.013243
788.000000	-0.012880
787.000000	-0.011597
786.000000	-0.012265
785.000000	-0.013524
784.000000	-0.012653
783.000000	-0.012947
782.000000	-0.013329
781.000000	-0.013589
780.000000	-0.012860
779.000000	-0.012940
778.000000	-0.013317
777.000000	-0.011786
776.000000	-0.012275
775.000000	-0.013276
774.000000	-0.012360
773.000000	-0.012024
772.000000	-0.012325
771.000000	-0.012790
770.000000	-0.012440
769.000000	-0.012344
768.000000	-0.013817
767.000000	-0.012077
766.000000	-0.013170
765.000000	-0.013153
764.000000	-0.012687
763.000000	-0.013856
762.000000	-0.012857
761.000000	-0.013462
760.000000	-0.013132
759.000000	-0.012793
758.000000	-0.012654
757.000000	-0.011545
756.000000	-0.013003
755.000000	-0.013317
754.000000	-0.012598
753.000000	-0.012456
752.000000	-0.012621
751.000000	-0.012963
750.000000	-0.013259
749.000000	-0.012468
748.000000	-0.013142
747.000000	-0.012526
746.000000	-0.012678
745.000000	-0.013193
744.000000	-0.013505
743.000000	-0.013871
742.000000	-0.012899
741.000000	-0.013457
740.000000	-0.012322
739.000000	-0.013127
738.000000	-0.013102
737.000000	-0.012532
736.000000	-0.013200
735.000000	-0.013046
734.000000	-0.013881
733.000000	-0.014270
732.000000	-0.013967
731.000000	-0.013037
730.000000	-0.013875
729.000000	-0.014250
728.000000	-0.013266
727.000000	-0.013245
726.000000	-0.013445
725.000000	-0.013390
724.000000	-0.013044
723.000000	-0.013583
722.000000	-0.013442
721.000000	-0.014082
720.000000	-0.014629
719.000000	-0.013736
718.000000	-0.013338
717.000000	-0.013128
716.000000	-0.013631
715.000000	-0.013452
714.000000	-0.013328
713.000000	-0.013444
712.000000	-0.012609
711.000000	-0.012342
710.000000	-0.012550
709.000000	-0.012190
708.000000	-0.012566
707.000000	-0.012315
706.000000	-0.010878
705.000000	-0.010952
704.000000	-0.010851
703.000000	-0.009720
702.000000	-0.008951
701.000000	-0.008053
700.000000	-0.006989
699.000000	-0.006461
698.000000	-0.005645
697.000000	-0.003965
696.000000	-0.002248
695.000000	-0.000325
694.000000	0.002289
693.000000	0.004143
692.000000	0.006922
691.000000	0.010500
690.000000	0.013579
689.000000	0.017036
688.000000	0.020791
687.000000	0.025324
686.000000	0.029027
685.000000	0.032768
684.000000	0.036420
683.000000	0.039572
682.000000	0.042692
681.000000	0.045419
680.000000	0.047572
679.000000	0.049244
678.000000	0.050804
677.000000	0.052992
676.000000	0.054592
675.000000	0.055243
674.000000	0.055471
673.000000	0.054998
672.000000	0.054010
671.000000	0.053168
670.000000	0.052046
669.000000	0.050378
668.000000	0.047984
667.000000	0.045168
666.000000	0.042557
665.000000	0.040331
664.000000	0.037728
663.000000	0.034716
662.000000	0.032372
661.000000	0.030642
660.000000	0.028656
659.000000	0.026969
658.000000	0.025303
657.000000	0.023654
656.000000	0.022561
655.000000	0.022170
654.000000	0.021283
653.000000	0.020577
652.000000	0.019699
651.000000	0.018808
650.000000	0.017889
649.000000	0.017072
648.000000	0.016278
647.000000	0.015192
646.000000	0.014150
645.000000	0.012989
644.000000	0.012826
643.000000	0.012375
642.000000	0.011185
641.000000	0.010623
640.000000	0.010254
639.000000	0.009542
638.000000	0.009342
637.000000	0.008869
636.000000	0.008246
635.000000	0.008002
634.000000	0.007985
633.000000	0.008228
632.000000	0.007984
631.000000	0.007165
630.000000	0.006927
629.000000	0.007150
628.000000	0.006900
627.000000	0.006788
626.000000	0.006405
625.000000	0.005930
624.000000	0.006046
623.000000	0.005695
622.000000	0.005396
621.000000	0.005458
620.000000	0.005400
619.000000	0.005009
618.000000	0.004546
617.000000	0.004596
616.000000	0.004281
615.000000	0.003879
614.000000	0.003726
613.000000	0.003581
612.000000	0.003066
611.000000	0.002993
610.000000	0.003424
609.000000	0.002241
608.000000	0.001996
607.000000	0.001972
606.000000	0.002187
605.000000	0.002219
604.000000	0.001788
603.000000	0.001955
602.000000	0.002240
601.000000	0.001892
600.000000	0.001571
599.000000	0.001647
598.000000	0.001266
597.000000	0.000650
596.000000	0.000710
595.000000	0.001051
594.000000	0.001101
593.000000	0.000910
592.000000	0.000346
591.000000	0.000483
590.000000	0.000564
589.000000	0.000334
588.000000	-0.000203
587.000000	-0.000331
586.000000	-0.000101
585.000000	-0.000820
584.000000	-0.000574
583.000000	-0.000888
582.000000	-0.000900
581.000000	-0.001301
580.000000	-0.001295
579.000000	-0.001720
578.000000	-0.001964
577.000000	-0.001698
576.000000	-0.002311
575.000000	-0.002187
574.000000	-0.002303
573.000000	-0.002227
572.000000	-0.001900
571.000000	-0.002491
570.000000	-0.002216
569.000000	-0.002218
568.000000	-0.002172
567.000000	-0.001749
566.000000	-0.001951
565.000000	-0.002052
564.000000	-0.001572
563.000000	-0.001782
562.000000	-0.001506
561.000000	-0.000910
560.000000	-0.000704
559.000000	-0.000571
558.000000	-0.000444
557.000000	0.000113
556.000000	0.000628
555.000000	0.000509
554.000000	0.001438
553.000000	0.001422
552.000000	0.001817
551.000000	0.002233
550.000000	0.002377
549.000000	0.003311
548.000000	0.003790
547.000000	0.004520
546.000000	0.005404
545.000000	0.005507
544.000000	0.006488
543.000000	0.006826
542.000000	0.007495
541.000000	0.007980
540.000000	0.008823
539.000000	0.009277
538.000000	0.010840
537.000000	0.011724
536.000000	0.012401
535.000000	0.013585
534.000000	0.014446
533.000000	0.015196
532.000000	0.016443
531.000000	0.017753
530.000000	0.018864
529.000000	0.020440
528.000000	0.022277
527.000000	0.023417
526.000000	0.025125
525.000000	0.026897
524.000000	0.028650
523.000000	0.030874
522.000000	0.032438
521.000000	0.035524
520.000000	0.037382
519.000000	0.040094
518.000000	0.042813
517.000000	0.046034
516.000000	0.048656
515.000000	0.051908
514.000000	0.055675
513.000000	0.058500
512.000000	0.061892
511.000000	0.064833
510.000000	0.069409
509.000000	0.072943
508.000000	0.076549
507.000000	0.080579
506.000000	0.084042
505.000000	0.087867
504.000000	0.091606
503.000000	0.095323
502.000000	0.098544
501.000000	0.102133
500.000000	0.105651
499.000000	0.108312
498.000000	0.111120
497.000000	0.114205
496.000000	0.116364
495.000000	0.119965
494.000000	0.122318
493.000000	0.123966
492.000000	0.126407
491.000000	0.128335
490.000000	0.130281
489.000000	0.132474
488.000000	0.134022
487.000000	0.135462
486.000000	0.136874
485.000000	0.138578
484.000000	0.139882
483.000000	0.141006
482.000000	0.142209
481.000000	0.142855
480.000000	0.144401
479.000000	0.145921
478.000000	0.146968
477.000000	0.148350
476.000000	0.150286
475.000000	0.151971
474.000000	0.153389
473.000000	0.155524
472.000000	0.157433
471.000000	0.159599
470.000000	0.161522
469.000000	0.163811
468.000000	0.165960
467.000000	0.167727
466.000000	0.169246
465.000000	0.171665
464.000000	0.173957
463.000000	0.176213
462.000000	0.178045
461.000000	0.179736
460.000000	0.181649
459.000000	0.183911
458.000000	0.185919
457.000000	0.187564
456.000000	0.189094
455.000000	0.190455
454.000000	0.192022
453.000000	0.193586
452.000000	0.194755
451.000000	0.196135
450.000000	0.197679
449.000000	0.198276
448.000000	0.198772
447.000000	0.198933
446.000000	0.199013
445.000000	0.198468
444.000000	0.198724
443.000000	0.198295
442.000000	0.197368
441.000000	0.196612
440.000000	0.195548
439.000000	0.194639
438.000000	0.193587
437.000000	0.192702
436.000000	0.191650
435.000000	0.190079
434.000000	0.189561
433.000000	0.189246
432.000000	0.188376
431.000000	0.187465
430.000000	0.187249
429.000000	0.186285
428.000000	0.185178
427.000000	0.184233
426.000000	0.183236
425.000000	0.182283
424.000000	0.181458
423.000000	0.180138
422.000000	0.178630
421.000000	0.176964
420.000000	0.175735
419.000000	0.174461
418.000000	0.173330
417.000000	0.172068
416.000000	0.170802
415.000000	0.169414
414.000000	0.168192
413.000000	0.167733
412.000000	0.166791
411.000000	0.165753
410.000000	0.164939
409.000000	0.164445
408.000000	0.163592
407.000000	0.163129
406.000000	0.162611
405.000000	0.162017
404.000000	0.161792
403.000000	0.161791
402.000000	0.162083
401.000000	0.162524
400.000000	0.163599
399.000000	0.163575
398.000000	0.162837
397.000000	0.163009
396.000000	0.163687
395.000000	0.164531
394.000000	0.165297
393.000000	0.165638
392.000000	0.165564
391.000000	0.164692
390.000000	0.163986
389.000000	0.162939
388.000000	0.162066
387.000000	0.161361
386.000000	0.159931
385.000000	0.157199
384.000000	0.154487
383.000000	0.152451
382.000000	0.149836
381.000000	0.145575
380.000000	0.142416
379.000000	0.140626
378.000000	0.135949
377.000000	0.127449
376.000000	0.122968
375.000000	0.119257
374.000000	0.113593
373.000000	0.113420
372.000000	0.110370
371.000000	0.104751
370.000000	0.101758
369.000000	0.100458
368.000000	0.097000
367.000000	0.094803
366.000000	0.092032
365.000000	0.088410
364.000000	0.086521
363.000000	0.086636
362.000000	0.084858
361.000000	0.082167
360.000000	0.081385
359.000000	0.078686
358.000000	0.076850
357.000000	0.076363
356.000000	0.075225
355.000000	0.075293
354.000000	0.074948
353.000000	0.073929
352.000000	0.073894
351.000000	0.073524
350.000000	0.073946
349.000000	0.072876
348.000000	0.071844
347.000000	0.072159
346.000000	0.072842
345.000000	0.072582
344.000000	0.072190
343.000000	0.070580
342.000000	0.070447
341.000000	0.072386
340.000000	0.072092
339.000000	0.071506
338.000000	0.073461
337.000000	0.072903
336.000000	0.069735
335.000000	0.070752
334.000000	0.068479
333.000000	0.068704
332.000000	0.069314
331.000000	0.068785
330.000000	0.069542
329.000000	0.068481
328.000000	0.067299
327.000000	0.070000
326.000000	0.067232
325.000000	0.065887
324.000000	0.071863
323.000000	0.069390
322.000000	0.067354
321.000000	0.066788
320.000000	0.071207
319.000000	0.073497
318.000000	0.069932
317.000000	0.069958
316.000000	0.071027
315.000000	0.072300
314.000000	0.074126
313.000000	0.076199
312.000000	0.073926
311.000000	0.078363
310.000000	0.081268
309.000000	0.082950
308.000000	0.083608
307.000000	0.085526
306.000000	0.089602
305.000000	0.092451
304.000000	0.097164
303.000000	0.101088
302.000000	0.106610
301.000000	0.109933
300.000000	0.118458
