PE UV       SUBTECH     SPECTRUM    ASCII       PEDS        4.00        
   -1
PETIT_85.Sample.Raw.asc
20/12/16
11:50:55.00
20/12/16
11:50:55.00
CNRS
RCC0100_C_DM
300.000000
1
Lambda 850
850L1011221
PerkinElmer UV WinLab 6.0.3.0730 / 1.61.00 Lambda 800

0
0
2
0
0
UV/VIS
1
1
1
RBeamAtt,SBeamAtt,150mm sphere / downward view
0
0
0
0
Fix
 
0
0.2
0
0
0
 
 
 
0
 
0
319.2
0
Front
50
 
S:100 R:100
 
0
0
0
 
0
 
 
 
0
 
 
0
0
0
0
0
 
 
 
 
0
0


#HDR
-1
-1
#GR
nm
A
1.0
0.0
800.000000
-1.000000
501
8
0.256514
-0.015500
#DATA
800.000000	-0.013817
799.000000	-0.013342
798.000000	-0.014125
797.000000	-0.012989
796.000000	-0.013738
795.000000	-0.014883
794.000000	-0.013314
793.000000	-0.013112
792.000000	-0.013315
791.000000	-0.014294
790.000000	-0.013680
789.000000	-0.014159
788.000000	-0.014094
787.000000	-0.013114
786.000000	-0.014885
785.000000	-0.014558
784.000000	-0.013994
783.000000	-0.013639
782.000000	-0.014019
781.000000	-0.014415
780.000000	-0.013222
779.000000	-0.013439
778.000000	-0.013432
777.000000	-0.012577
776.000000	-0.013183
775.000000	-0.012973
774.000000	-0.014040
773.000000	-0.013475
772.000000	-0.013736
771.000000	-0.013226
770.000000	-0.013936
769.000000	-0.013258
768.000000	-0.014101
767.000000	-0.014306
766.000000	-0.014104
765.000000	-0.014040
764.000000	-0.013678
763.000000	-0.013642
762.000000	-0.013359
761.000000	-0.014097
760.000000	-0.013723
759.000000	-0.013665
758.000000	-0.013860
757.000000	-0.012937
756.000000	-0.013159
755.000000	-0.013500
754.000000	-0.012604
753.000000	-0.012941
752.000000	-0.013724
751.000000	-0.013486
750.000000	-0.013132
749.000000	-0.013239
748.000000	-0.013648
747.000000	-0.013701
746.000000	-0.013504
745.000000	-0.013996
744.000000	-0.014454
743.000000	-0.013792
742.000000	-0.012555
741.000000	-0.013752
740.000000	-0.013461
739.000000	-0.013996
738.000000	-0.014250
737.000000	-0.014443
736.000000	-0.013977
735.000000	-0.014299
734.000000	-0.015500
733.000000	-0.014384
732.000000	-0.013929
731.000000	-0.014050
730.000000	-0.014600
729.000000	-0.014971
728.000000	-0.014720
727.000000	-0.014398
726.000000	-0.014553
725.000000	-0.013807
724.000000	-0.013797
723.000000	-0.013768
722.000000	-0.014311
721.000000	-0.014480
720.000000	-0.014363
719.000000	-0.013818
718.000000	-0.014168
717.000000	-0.014441
716.000000	-0.014019
715.000000	-0.013764
714.000000	-0.013240
713.000000	-0.013499
712.000000	-0.013190
711.000000	-0.012904
710.000000	-0.012933
709.000000	-0.012480
708.000000	-0.012516
707.000000	-0.011834
706.000000	-0.010728
705.000000	-0.010123
704.000000	-0.009864
703.000000	-0.008663
702.000000	-0.007606
701.000000	-0.006604
700.000000	-0.005024
699.000000	-0.003269
698.000000	-0.001195
697.000000	0.000510
696.000000	0.003809
695.000000	0.008250
694.000000	0.012244
693.000000	0.017067
692.000000	0.023393
691.000000	0.029998
690.000000	0.037709
689.000000	0.046516
688.000000	0.055331
687.000000	0.064974
686.000000	0.075003
685.000000	0.085162
684.000000	0.094691
683.000000	0.103416
682.000000	0.111891
681.000000	0.119604
680.000000	0.125212
679.000000	0.130476
678.000000	0.135873
677.000000	0.139652
676.000000	0.142147
675.000000	0.143544
674.000000	0.143021
673.000000	0.141115
672.000000	0.138190
671.000000	0.134476
670.000000	0.129349
669.000000	0.123142
668.000000	0.116305
667.000000	0.109186
666.000000	0.102025
665.000000	0.094190
664.000000	0.086282
663.000000	0.079079
662.000000	0.072119
661.000000	0.066503
660.000000	0.061073
659.000000	0.055805
658.000000	0.051596
657.000000	0.047837
656.000000	0.044383
655.000000	0.042416
654.000000	0.040343
653.000000	0.038427
652.000000	0.037262
651.000000	0.036562
650.000000	0.036588
649.000000	0.037243
648.000000	0.037655
647.000000	0.038348
646.000000	0.039384
645.000000	0.040886
644.000000	0.042466
643.000000	0.043628
642.000000	0.044595
641.000000	0.045709
640.000000	0.046255
639.000000	0.046383
638.000000	0.046241
637.000000	0.046148
636.000000	0.045451
635.000000	0.045071
634.000000	0.044669
633.000000	0.044070
632.000000	0.043350
631.000000	0.042205
630.000000	0.041804
629.000000	0.041167
628.000000	0.040025
627.000000	0.039237
626.000000	0.038692
625.000000	0.037606
624.000000	0.037376
623.000000	0.036776
622.000000	0.036207
621.000000	0.036458
620.000000	0.036385
619.000000	0.036308
618.000000	0.035730
617.000000	0.035498
616.000000	0.035067
615.000000	0.034469
614.000000	0.034275
613.000000	0.033951
612.000000	0.033830
611.000000	0.033626
610.000000	0.033650
609.000000	0.033339
608.000000	0.033541
607.000000	0.033804
606.000000	0.033885
605.000000	0.034557
604.000000	0.035200
603.000000	0.036143
602.000000	0.037123
601.000000	0.037944
600.000000	0.038749
599.000000	0.039643
598.000000	0.040370
597.000000	0.040533
596.000000	0.041430
595.000000	0.042089
594.000000	0.042389
593.000000	0.042602
592.000000	0.041916
591.000000	0.041793
590.000000	0.041914
589.000000	0.041094
588.000000	0.040074
587.000000	0.038641
586.000000	0.038191
585.000000	0.036529
584.000000	0.035114
583.000000	0.034509
582.000000	0.033074
581.000000	0.032148
580.000000	0.031398
579.000000	0.029613
578.000000	0.028389
577.000000	0.027775
576.000000	0.026682
575.000000	0.025456
574.000000	0.025567
573.000000	0.025355
572.000000	0.024470
571.000000	0.023910
570.000000	0.023670
569.000000	0.023299
568.000000	0.023357
567.000000	0.023987
566.000000	0.024103
565.000000	0.024094
564.000000	0.024847
563.000000	0.025585
562.000000	0.026346
561.000000	0.027794
560.000000	0.029181
559.000000	0.030277
558.000000	0.031181
557.000000	0.032772
556.000000	0.034289
555.000000	0.035593
554.000000	0.037506
553.000000	0.038899
552.000000	0.040525
551.000000	0.042450
550.000000	0.044177
549.000000	0.046380
548.000000	0.048382
547.000000	0.050380
546.000000	0.052530
545.000000	0.054048
544.000000	0.056561
543.000000	0.058004
542.000000	0.060387
541.000000	0.062095
540.000000	0.064477
539.000000	0.066287
538.000000	0.068586
537.000000	0.070655
536.000000	0.072875
535.000000	0.075306
534.000000	0.077602
533.000000	0.079457
532.000000	0.081803
531.000000	0.083870
530.000000	0.085900
529.000000	0.087967
528.000000	0.090351
527.000000	0.092499
526.000000	0.094376
525.000000	0.096427
524.000000	0.098336
523.000000	0.100378
522.000000	0.102405
521.000000	0.103947
520.000000	0.106111
519.000000	0.108080
518.000000	0.110316
517.000000	0.112205
516.000000	0.114406
515.000000	0.116277
514.000000	0.118858
513.000000	0.120812
512.000000	0.122933
511.000000	0.125242
510.000000	0.127562
509.000000	0.130201
508.000000	0.132583
507.000000	0.135298
506.000000	0.138350
505.000000	0.140599
504.000000	0.144413
503.000000	0.147263
502.000000	0.150564
501.000000	0.153966
500.000000	0.157707
499.000000	0.161279
498.000000	0.165022
497.000000	0.168838
496.000000	0.172872
495.000000	0.177355
494.000000	0.181560
493.000000	0.185233
492.000000	0.189854
491.000000	0.193358
490.000000	0.197293
489.000000	0.200865
488.000000	0.204437
487.000000	0.207568
486.000000	0.210240
485.000000	0.213329
484.000000	0.216402
483.000000	0.218244
482.000000	0.219709
481.000000	0.220705
480.000000	0.222409
479.000000	0.222912
478.000000	0.224624
477.000000	0.225567
476.000000	0.226740
475.000000	0.228063
474.000000	0.229047
473.000000	0.230374
472.000000	0.230907
471.000000	0.232383
470.000000	0.233360
469.000000	0.234141
468.000000	0.235078
467.000000	0.235473
466.000000	0.235992
465.000000	0.236849
464.000000	0.238046
463.000000	0.238647
462.000000	0.238470
461.000000	0.238523
460.000000	0.238937
459.000000	0.239056
458.000000	0.239856
457.000000	0.240015
456.000000	0.239589
455.000000	0.239192
454.000000	0.239428
453.000000	0.239737
452.000000	0.239496
451.000000	0.240265
450.000000	0.241602
449.000000	0.242636
448.000000	0.243853
447.000000	0.244927
446.000000	0.246385
445.000000	0.248352
444.000000	0.250546
443.000000	0.252686
442.000000	0.254186
441.000000	0.255424
440.000000	0.256169
439.000000	0.256506
438.000000	0.256514
437.000000	0.256272
436.000000	0.255047
435.000000	0.253678
434.000000	0.251758
433.000000	0.249991
432.000000	0.247557
431.000000	0.244593
430.000000	0.242179
429.000000	0.239974
428.000000	0.237487
427.000000	0.235172
426.000000	0.233016
425.000000	0.231057
424.000000	0.229255
423.000000	0.227475
422.000000	0.226006
421.000000	0.224806
420.000000	0.223896
419.000000	0.222967
418.000000	0.221767
417.000000	0.220819
416.000000	0.220062
415.000000	0.218126
414.000000	0.216430
413.000000	0.214775
412.000000	0.212612
411.000000	0.210102
410.000000	0.207278
409.000000	0.204097
408.000000	0.201147
407.000000	0.198570
406.000000	0.195722
405.000000	0.192589
404.000000	0.189033
403.000000	0.185534
402.000000	0.182923
401.000000	0.181487
400.000000	0.179380
399.000000	0.176853
398.000000	0.174099
397.000000	0.172026
396.000000	0.170848
395.000000	0.169448
394.000000	0.167666
393.000000	0.166379
392.000000	0.165580
391.000000	0.163518
390.000000	0.161630
389.000000	0.160335
388.000000	0.158789
387.000000	0.157186
386.000000	0.155142
385.000000	0.153362
384.000000	0.152301
383.000000	0.151229
382.000000	0.149902
381.000000	0.147304
380.000000	0.144650
379.000000	0.143996
378.000000	0.141772
377.000000	0.135353
376.000000	0.133333
375.000000	0.132213
374.000000	0.128896
373.000000	0.127497
372.000000	0.124379
371.000000	0.122401
370.000000	0.119937
369.000000	0.119972
368.000000	0.119105
367.000000	0.115769
366.000000	0.113746
365.000000	0.112987
364.000000	0.113744
363.000000	0.113770
362.000000	0.112269
361.000000	0.109522
360.000000	0.109178
359.000000	0.106035
358.000000	0.104897
357.000000	0.104524
356.000000	0.102578
355.000000	0.105704
354.000000	0.104842
353.000000	0.102420
352.000000	0.104790
351.000000	0.101843
350.000000	0.102471
349.000000	0.102476
348.000000	0.103825
347.000000	0.104734
346.000000	0.104507
345.000000	0.105201
344.000000	0.106786
343.000000	0.105317
342.000000	0.107224
341.000000	0.110191
340.000000	0.108890
339.000000	0.108766
338.000000	0.110908
337.000000	0.108091
336.000000	0.105794
335.000000	0.109271
334.000000	0.106426
333.000000	0.108152
332.000000	0.107953
331.000000	0.106564
330.000000	0.104494
329.000000	0.103275
328.000000	0.102955
327.000000	0.105102
326.000000	0.103652
325.000000	0.100277
324.000000	0.109529
323.000000	0.102283
322.000000	0.103764
321.000000	0.105483
320.000000	0.107605
319.000000	0.102731
318.000000	0.102644
317.000000	0.100948
316.000000	0.103429
315.000000	0.102614
314.000000	0.102607
313.000000	0.105067
312.000000	0.106492
311.000000	0.106142
310.000000	0.108793
309.000000	0.111899
308.000000	0.110010
307.000000	0.112166
306.000000	0.116377
305.000000	0.118521
304.000000	0.123763
303.000000	0.127439
302.000000	0.132718
301.000000	0.134263
300.000000	0.139316
