PE UV       SUBTECH     SPECTRUM    ASCII       PEDS        4.00        
   -1
PETIT_77.Sample.Raw.asc
20/12/16
11:00:13.00
20/12/16
11:00:13.00
CNRS
RCC2379_D_D2
300.000000
1
Lambda 850
850L1011221
PerkinElmer UV WinLab 6.0.3.0730 / 1.61.00 Lambda 800

0
0
2
0
0
UV/VIS
1
1
1
RBeamAtt,SBeamAtt,150mm sphere / downward view
0
0
0
0
Fix
 
0
0.2
0
0
0
 
 
 
0
 
0
319.2
0
Front
50
 
S:100 R:100
 
0
0
0
 
0
 
 
 
0
 
 
0
0
0
0
0
 
 
 
 
0
0


#HDR
-1
-1
#GR
nm
A
1.0
0.0
800.000000
-1.000000
501
8
0.153861
-0.014758
#DATA
800.000000	-0.012806
799.000000	-0.014428
798.000000	-0.013389
797.000000	-0.013147
796.000000	-0.012386
795.000000	-0.013653
794.000000	-0.014328
793.000000	-0.013860
792.000000	-0.012471
791.000000	-0.013947
790.000000	-0.013222
789.000000	-0.013484
788.000000	-0.013916
787.000000	-0.012478
786.000000	-0.013482
785.000000	-0.013346
784.000000	-0.012768
783.000000	-0.013465
782.000000	-0.013710
781.000000	-0.013618
780.000000	-0.013675
779.000000	-0.012615
778.000000	-0.013181
777.000000	-0.012126
776.000000	-0.012420
775.000000	-0.012976
774.000000	-0.013898
773.000000	-0.013222
772.000000	-0.012759
771.000000	-0.012966
770.000000	-0.012596
769.000000	-0.013519
768.000000	-0.013970
767.000000	-0.012270
766.000000	-0.012511
765.000000	-0.012871
764.000000	-0.012498
763.000000	-0.012928
762.000000	-0.012332
761.000000	-0.013138
760.000000	-0.012396
759.000000	-0.012638
758.000000	-0.012658
757.000000	-0.011723
756.000000	-0.012799
755.000000	-0.012828
754.000000	-0.013037
753.000000	-0.012966
752.000000	-0.012897
751.000000	-0.013065
750.000000	-0.013582
749.000000	-0.013011
748.000000	-0.012586
747.000000	-0.012482
746.000000	-0.012586
745.000000	-0.013402
744.000000	-0.013646
743.000000	-0.012997
742.000000	-0.012249
741.000000	-0.013305
740.000000	-0.013402
739.000000	-0.013125
738.000000	-0.012724
737.000000	-0.013364
736.000000	-0.013931
735.000000	-0.013365
734.000000	-0.014190
733.000000	-0.014223
732.000000	-0.013703
731.000000	-0.013551
730.000000	-0.014160
729.000000	-0.014758
728.000000	-0.014424
727.000000	-0.013751
726.000000	-0.013979
725.000000	-0.013677
724.000000	-0.013246
723.000000	-0.013389
722.000000	-0.013800
721.000000	-0.013689
720.000000	-0.013832
719.000000	-0.013569
718.000000	-0.013015
717.000000	-0.013367
716.000000	-0.013492
715.000000	-0.013128
714.000000	-0.012560
713.000000	-0.012577
712.000000	-0.011706
711.000000	-0.011405
710.000000	-0.011774
709.000000	-0.011556
708.000000	-0.011721
707.000000	-0.011141
706.000000	-0.009712
705.000000	-0.009545
704.000000	-0.009032
703.000000	-0.007380
702.000000	-0.006110
701.000000	-0.004510
700.000000	-0.002970
699.000000	-0.001415
698.000000	0.000143
697.000000	0.002254
696.000000	0.005157
695.000000	0.008347
694.000000	0.011479
693.000000	0.014436
692.000000	0.018557
691.000000	0.022910
690.000000	0.027007
689.000000	0.031333
688.000000	0.035190
687.000000	0.039538
686.000000	0.043880
685.000000	0.048065
684.000000	0.051643
683.000000	0.054389
682.000000	0.057004
681.000000	0.059315
680.000000	0.059854
679.000000	0.059947
678.000000	0.060155
677.000000	0.059900
676.000000	0.059388
675.000000	0.058534
674.000000	0.057285
673.000000	0.055587
672.000000	0.053757
671.000000	0.051803
670.000000	0.049749
669.000000	0.047270
668.000000	0.044411
667.000000	0.041925
666.000000	0.039284
665.000000	0.036151
664.000000	0.033372
663.000000	0.030336
662.000000	0.027390
661.000000	0.024958
660.000000	0.022441
659.000000	0.020581
658.000000	0.018598
657.000000	0.016501
656.000000	0.015177
655.000000	0.014240
654.000000	0.013359
653.000000	0.012852
652.000000	0.012346
651.000000	0.011849
650.000000	0.011509
649.000000	0.011128
648.000000	0.010827
647.000000	0.011253
646.000000	0.011505
645.000000	0.011032
644.000000	0.011435
643.000000	0.011738
642.000000	0.011742
641.000000	0.012229
640.000000	0.012459
639.000000	0.012647
638.000000	0.012982
637.000000	0.013114
636.000000	0.012989
635.000000	0.013343
634.000000	0.013511
633.000000	0.013510
632.000000	0.013973
631.000000	0.013220
630.000000	0.013297
629.000000	0.013131
628.000000	0.013062
627.000000	0.012765
626.000000	0.012510
625.000000	0.012017
624.000000	0.011957
623.000000	0.012062
622.000000	0.011629
621.000000	0.011509
620.000000	0.010906
619.000000	0.010380
618.000000	0.009889
617.000000	0.009713
616.000000	0.009456
615.000000	0.008681
614.000000	0.008020
613.000000	0.007578
612.000000	0.007214
611.000000	0.006881
610.000000	0.006833
609.000000	0.005620
608.000000	0.005262
607.000000	0.005119
606.000000	0.004945
605.000000	0.004500
604.000000	0.004092
603.000000	0.004330
602.000000	0.003919
601.000000	0.004109
600.000000	0.003997
599.000000	0.004286
598.000000	0.003845
597.000000	0.003464
596.000000	0.003614
595.000000	0.003984
594.000000	0.004218
593.000000	0.004076
592.000000	0.003930
591.000000	0.003915
590.000000	0.004457
589.000000	0.004750
588.000000	0.004223
587.000000	0.004184
586.000000	0.004578
585.000000	0.004520
584.000000	0.004664
583.000000	0.005189
582.000000	0.005502
581.000000	0.006203
580.000000	0.006304
579.000000	0.006562
578.000000	0.007632
577.000000	0.008809
576.000000	0.009545
575.000000	0.010824
574.000000	0.012272
573.000000	0.013363
572.000000	0.014452
571.000000	0.015494
570.000000	0.016080
569.000000	0.016792
568.000000	0.017832
567.000000	0.018436
566.000000	0.018988
565.000000	0.018949
564.000000	0.019770
563.000000	0.019655
562.000000	0.019397
561.000000	0.021224
560.000000	0.021341
559.000000	0.021557
558.000000	0.021905
557.000000	0.022561
556.000000	0.022544
555.000000	0.022927
554.000000	0.023789
553.000000	0.023783
552.000000	0.023986
551.000000	0.024741
550.000000	0.024793
549.000000	0.025994
548.000000	0.026202
547.000000	0.026735
546.000000	0.027449
545.000000	0.027616
544.000000	0.028065
543.000000	0.028006
542.000000	0.028106
541.000000	0.027946
540.000000	0.028890
539.000000	0.028293
538.000000	0.028729
537.000000	0.028942
536.000000	0.029303
535.000000	0.029103
534.000000	0.030070
533.000000	0.030078
532.000000	0.029866
531.000000	0.030459
530.000000	0.030608
529.000000	0.031037
528.000000	0.032044
527.000000	0.032983
526.000000	0.033523
525.000000	0.033865
524.000000	0.034403
523.000000	0.035892
522.000000	0.036452
521.000000	0.038271
520.000000	0.039556
519.000000	0.041130
518.000000	0.043571
517.000000	0.045152
516.000000	0.047101
515.000000	0.049320
514.000000	0.051530
513.000000	0.053759
512.000000	0.056023
511.000000	0.058410
510.000000	0.061748
509.000000	0.064509
508.000000	0.067133
507.000000	0.070314
506.000000	0.073338
505.000000	0.076443
504.000000	0.080041
503.000000	0.083366
502.000000	0.086695
501.000000	0.089779
500.000000	0.093041
499.000000	0.095045
498.000000	0.096932
497.000000	0.099026
496.000000	0.100274
495.000000	0.102292
494.000000	0.103524
493.000000	0.103569
492.000000	0.103925
491.000000	0.104100
490.000000	0.103230
489.000000	0.102854
488.000000	0.102729
487.000000	0.102438
486.000000	0.101711
485.000000	0.100745
484.000000	0.100732
483.000000	0.099978
482.000000	0.099726
481.000000	0.099077
480.000000	0.099049
479.000000	0.099083
478.000000	0.099341
477.000000	0.099908
476.000000	0.100789
475.000000	0.101309
474.000000	0.101922
473.000000	0.102815
472.000000	0.103701
471.000000	0.104917
470.000000	0.105877
469.000000	0.106736
468.000000	0.107762
467.000000	0.108862
466.000000	0.109348
465.000000	0.110978
464.000000	0.111707
463.000000	0.111982
462.000000	0.112129
461.000000	0.112521
460.000000	0.113453
459.000000	0.114086
458.000000	0.114987
457.000000	0.115718
456.000000	0.116676
455.000000	0.117498
454.000000	0.119008
453.000000	0.120740
452.000000	0.122568
451.000000	0.125026
450.000000	0.127575
449.000000	0.131190
448.000000	0.134628
447.000000	0.137024
446.000000	0.139896
445.000000	0.142662
444.000000	0.145724
443.000000	0.148588
442.000000	0.150266
441.000000	0.151865
440.000000	0.153023
439.000000	0.153543
438.000000	0.153627
437.000000	0.153861
436.000000	0.153293
435.000000	0.152342
434.000000	0.151868
433.000000	0.150943
432.000000	0.149652
431.000000	0.148305
430.000000	0.147942
429.000000	0.146941
428.000000	0.145264
427.000000	0.144699
426.000000	0.144442
425.000000	0.143594
424.000000	0.143204
423.000000	0.142583
422.000000	0.142052
421.000000	0.142092
420.000000	0.142668
419.000000	0.142658
418.000000	0.141625
417.000000	0.141477
416.000000	0.141679
415.000000	0.140849
414.000000	0.140533
413.000000	0.140339
412.000000	0.139620
411.000000	0.138991
410.000000	0.137869
409.000000	0.137349
408.000000	0.136370
407.000000	0.135478
406.000000	0.135207
405.000000	0.134489
404.000000	0.134375
403.000000	0.134109
402.000000	0.134543
401.000000	0.134729
400.000000	0.135022
399.000000	0.135589
398.000000	0.136497
397.000000	0.136492
396.000000	0.136789
395.000000	0.138390
394.000000	0.139860
393.000000	0.140415
392.000000	0.140905
391.000000	0.140302
390.000000	0.140395
389.000000	0.140797
388.000000	0.140317
387.000000	0.140585
386.000000	0.141146
385.000000	0.139425
384.000000	0.138055
383.000000	0.137818
382.000000	0.137234
381.000000	0.134665
380.000000	0.132004
379.000000	0.131463
378.000000	0.125447
377.000000	0.119357
376.000000	0.117455
375.000000	0.114301
374.000000	0.110581
373.000000	0.106953
372.000000	0.104814
371.000000	0.101289
370.000000	0.098362
369.000000	0.097199
368.000000	0.093831
367.000000	0.090119
366.000000	0.089725
365.000000	0.085528
364.000000	0.085426
363.000000	0.084129
362.000000	0.082515
361.000000	0.079996
360.000000	0.077027
359.000000	0.075467
358.000000	0.074911
357.000000	0.072434
356.000000	0.072779
355.000000	0.073656
354.000000	0.071001
353.000000	0.069779
352.000000	0.071211
351.000000	0.069682
350.000000	0.071240
349.000000	0.070015
348.000000	0.070086
347.000000	0.072133
346.000000	0.071699
345.000000	0.070935
344.000000	0.071169
343.000000	0.069252
342.000000	0.069801
341.000000	0.071214
340.000000	0.071733
339.000000	0.070780
338.000000	0.072952
337.000000	0.070693
336.000000	0.070587
335.000000	0.072549
334.000000	0.068725
333.000000	0.069795
332.000000	0.072038
331.000000	0.070656
330.000000	0.069296
329.000000	0.067027
328.000000	0.069752
327.000000	0.073781
326.000000	0.071541
325.000000	0.065075
324.000000	0.074195
323.000000	0.070783
322.000000	0.070049
321.000000	0.072998
320.000000	0.074464
319.000000	0.073939
318.000000	0.073714
317.000000	0.073827
316.000000	0.073977
315.000000	0.074509
314.000000	0.076283
313.000000	0.080491
312.000000	0.079103
311.000000	0.082700
310.000000	0.085615
309.000000	0.086882
308.000000	0.089650
307.000000	0.088788
306.000000	0.092939
305.000000	0.096706
304.000000	0.102303
303.000000	0.106399
302.000000	0.110040
301.000000	0.112804
300.000000	0.119128
