PE UV       SUBTECH     SPECTRUM    ASCII       PEDS        4.00        
   -1
PETIT_84.Sample.Raw.asc
20/12/16
11:24:23.00
20/12/16
11:24:23.00
CNRS
Blanc04
300.000000
1
Lambda 850
850L1011221
PerkinElmer UV WinLab 6.0.3.0730 / 1.61.00 Lambda 800

0
0
2
0
0
UV/VIS
1
1
1
RBeamAtt,SBeamAtt,150mm sphere / downward view
0
0
0
0
Fix
 
0
0.2
0
0
0
 
 
 
0
 
0
319.2
0
Front
50
 
S:100 R:100
 
0
0
0
 
0
 
 
 
0
 
 
0
0
0
0
0
 
 
 
 
0
0


#HDR
-1
-1
#GR
nm
A
1.0
0.0
800.000000
-1.000000
501
8
0.013120
-0.020980
#DATA
800.000000	-0.011789
799.000000	-0.013583
798.000000	-0.013856
797.000000	-0.011989
796.000000	-0.010770
795.000000	-0.013068
794.000000	-0.013155
793.000000	-0.013012
792.000000	-0.012446
791.000000	-0.012592
790.000000	-0.012952
789.000000	-0.014475
788.000000	-0.013145
787.000000	-0.011350
786.000000	-0.012482
785.000000	-0.012902
784.000000	-0.011990
783.000000	-0.012953
782.000000	-0.013880
781.000000	-0.014085
780.000000	-0.012331
779.000000	-0.012881
778.000000	-0.013300
777.000000	-0.011563
776.000000	-0.011439
775.000000	-0.012222
774.000000	-0.012660
773.000000	-0.012062
772.000000	-0.012274
771.000000	-0.012894
770.000000	-0.012717
769.000000	-0.012996
768.000000	-0.013482
767.000000	-0.012572
766.000000	-0.012422
765.000000	-0.012606
764.000000	-0.011367
763.000000	-0.012514
762.000000	-0.012285
761.000000	-0.012819
760.000000	-0.012848
759.000000	-0.012669
758.000000	-0.012521
757.000000	-0.011543
756.000000	-0.012854
755.000000	-0.012430
754.000000	-0.012812
753.000000	-0.012622
752.000000	-0.013101
751.000000	-0.013489
750.000000	-0.012587
749.000000	-0.012058
748.000000	-0.013156
747.000000	-0.012764
746.000000	-0.013627
745.000000	-0.013672
744.000000	-0.012834
743.000000	-0.013128
742.000000	-0.012258
741.000000	-0.012657
740.000000	-0.013581
739.000000	-0.013090
738.000000	-0.013603
737.000000	-0.013915
736.000000	-0.013199
735.000000	-0.013545
734.000000	-0.014302
733.000000	-0.013411
732.000000	-0.013068
731.000000	-0.013150
730.000000	-0.013862
729.000000	-0.014596
728.000000	-0.013685
727.000000	-0.013893
726.000000	-0.013965
725.000000	-0.013280
724.000000	-0.013131
723.000000	-0.013146
722.000000	-0.013361
721.000000	-0.014012
720.000000	-0.014296
719.000000	-0.013973
718.000000	-0.014584
717.000000	-0.014824
716.000000	-0.014332
715.000000	-0.014373
714.000000	-0.013306
713.000000	-0.013631
712.000000	-0.013906
711.000000	-0.013801
710.000000	-0.014397
709.000000	-0.014213
708.000000	-0.014340
707.000000	-0.014112
706.000000	-0.013685
705.000000	-0.014624
704.000000	-0.014737
703.000000	-0.013912
702.000000	-0.013742
701.000000	-0.013485
700.000000	-0.013706
699.000000	-0.014517
698.000000	-0.014622
697.000000	-0.014631
696.000000	-0.014481
695.000000	-0.014174
694.000000	-0.014368
693.000000	-0.014501
692.000000	-0.013765
691.000000	-0.013771
690.000000	-0.014224
689.000000	-0.014200
688.000000	-0.014242
687.000000	-0.013907
686.000000	-0.013813
685.000000	-0.013526
684.000000	-0.013526
683.000000	-0.013998
682.000000	-0.014106
681.000000	-0.013910
680.000000	-0.013940
679.000000	-0.014421
678.000000	-0.014158
677.000000	-0.013844
676.000000	-0.013658
675.000000	-0.013263
674.000000	-0.013581
673.000000	-0.013851
672.000000	-0.013736
671.000000	-0.013779
670.000000	-0.013761
669.000000	-0.013800
668.000000	-0.014531
667.000000	-0.014464
666.000000	-0.014085
665.000000	-0.013796
664.000000	-0.013887
663.000000	-0.014374
662.000000	-0.014506
661.000000	-0.014270
660.000000	-0.013928
659.000000	-0.014166
658.000000	-0.014610
657.000000	-0.014693
656.000000	-0.014670
655.000000	-0.014122
654.000000	-0.014248
653.000000	-0.014061
652.000000	-0.013892
651.000000	-0.014356
650.000000	-0.014476
649.000000	-0.014433
648.000000	-0.014630
647.000000	-0.014580
646.000000	-0.014188
645.000000	-0.014803
644.000000	-0.014190
643.000000	-0.014011
642.000000	-0.014368
641.000000	-0.014147
640.000000	-0.014314
639.000000	-0.014842
638.000000	-0.014361
637.000000	-0.014503
636.000000	-0.014774
635.000000	-0.014628
634.000000	-0.014278
633.000000	-0.013702
632.000000	-0.013926
631.000000	-0.014654
630.000000	-0.014574
629.000000	-0.014404
628.000000	-0.014208
627.000000	-0.014351
626.000000	-0.014572
625.000000	-0.014994
624.000000	-0.014654
623.000000	-0.014650
622.000000	-0.014543
621.000000	-0.014265
620.000000	-0.014578
619.000000	-0.014556
618.000000	-0.014541
617.000000	-0.014357
616.000000	-0.014330
615.000000	-0.014247
614.000000	-0.014579
613.000000	-0.014731
612.000000	-0.014618
611.000000	-0.014501
610.000000	-0.014373
609.000000	-0.014640
608.000000	-0.014399
607.000000	-0.014352
606.000000	-0.014275
605.000000	-0.014293
604.000000	-0.014470
603.000000	-0.014049
602.000000	-0.013964
601.000000	-0.014081
600.000000	-0.014517
599.000000	-0.014482
598.000000	-0.014955
597.000000	-0.015186
596.000000	-0.014932
595.000000	-0.014651
594.000000	-0.014495
593.000000	-0.014530
592.000000	-0.014592
591.000000	-0.014681
590.000000	-0.014667
589.000000	-0.013978
588.000000	-0.014632
587.000000	-0.014798
586.000000	-0.014203
585.000000	-0.014790
584.000000	-0.014653
583.000000	-0.014758
582.000000	-0.014297
581.000000	-0.014645
580.000000	-0.014685
579.000000	-0.014537
578.000000	-0.014831
577.000000	-0.014272
576.000000	-0.014663
575.000000	-0.014817
574.000000	-0.014542
573.000000	-0.014269
572.000000	-0.014287
571.000000	-0.014578
570.000000	-0.014602
569.000000	-0.014718
568.000000	-0.014867
567.000000	-0.014297
566.000000	-0.014131
565.000000	-0.014503
564.000000	-0.014413
563.000000	-0.014517
562.000000	-0.014416
561.000000	-0.014295
560.000000	-0.014444
559.000000	-0.014135
558.000000	-0.014192
557.000000	-0.013892
556.000000	-0.013999
555.000000	-0.014347
554.000000	-0.013656
553.000000	-0.014289
552.000000	-0.014296
551.000000	-0.014302
550.000000	-0.014589
549.000000	-0.014022
548.000000	-0.013763
547.000000	-0.014277
546.000000	-0.014176
545.000000	-0.014103
544.000000	-0.013688
543.000000	-0.014107
542.000000	-0.013766
541.000000	-0.014203
540.000000	-0.014242
539.000000	-0.014480
538.000000	-0.013924
537.000000	-0.013982
536.000000	-0.014078
535.000000	-0.013853
534.000000	-0.014483
533.000000	-0.014243
532.000000	-0.013971
531.000000	-0.014092
530.000000	-0.014410
529.000000	-0.014170
528.000000	-0.013914
527.000000	-0.013865
526.000000	-0.013863
525.000000	-0.014191
524.000000	-0.014169
523.000000	-0.014259
522.000000	-0.014680
521.000000	-0.014355
520.000000	-0.014618
519.000000	-0.014362
518.000000	-0.014347
517.000000	-0.014144
516.000000	-0.013805
515.000000	-0.013884
514.000000	-0.013541
513.000000	-0.013626
512.000000	-0.014195
511.000000	-0.013998
510.000000	-0.013634
509.000000	-0.013967
508.000000	-0.013978
507.000000	-0.014068
506.000000	-0.014460
505.000000	-0.014247
504.000000	-0.013964
503.000000	-0.014235
502.000000	-0.013874
501.000000	-0.013867
500.000000	-0.013679
499.000000	-0.013781
498.000000	-0.013972
497.000000	-0.014352
496.000000	-0.014559
495.000000	-0.013673
494.000000	-0.014020
493.000000	-0.013868
492.000000	-0.013552
491.000000	-0.013240
490.000000	-0.013487
489.000000	-0.013823
488.000000	-0.013485
487.000000	-0.013600
486.000000	-0.013485
485.000000	-0.013753
484.000000	-0.013355
483.000000	-0.013499
482.000000	-0.013402
481.000000	-0.013985
480.000000	-0.014204
479.000000	-0.014261
478.000000	-0.013960
477.000000	-0.013725
476.000000	-0.013708
475.000000	-0.013366
474.000000	-0.014228
473.000000	-0.014382
472.000000	-0.014300
471.000000	-0.014022
470.000000	-0.013907
469.000000	-0.013982
468.000000	-0.014041
467.000000	-0.014360
466.000000	-0.014697
465.000000	-0.014390
464.000000	-0.013836
463.000000	-0.013899
462.000000	-0.014097
461.000000	-0.014542
460.000000	-0.014610
459.000000	-0.014104
458.000000	-0.013588
457.000000	-0.013488
456.000000	-0.013463
455.000000	-0.013596
454.000000	-0.014143
453.000000	-0.014436
452.000000	-0.014427
451.000000	-0.013857
450.000000	-0.013448
449.000000	-0.013480
448.000000	-0.013472
447.000000	-0.013536
446.000000	-0.013764
445.000000	-0.013866
444.000000	-0.013948
443.000000	-0.013746
442.000000	-0.013783
441.000000	-0.014164
440.000000	-0.014250
439.000000	-0.014151
438.000000	-0.014309
437.000000	-0.014507
436.000000	-0.014632
435.000000	-0.014652
434.000000	-0.014582
433.000000	-0.014380
432.000000	-0.014537
431.000000	-0.014679
430.000000	-0.014017
429.000000	-0.014125
428.000000	-0.014791
427.000000	-0.014371
426.000000	-0.014252
425.000000	-0.014694
424.000000	-0.014484
423.000000	-0.014440
422.000000	-0.014588
421.000000	-0.014911
420.000000	-0.014799
419.000000	-0.014916
418.000000	-0.015131
417.000000	-0.015331
416.000000	-0.015534
415.000000	-0.015153
414.000000	-0.015026
413.000000	-0.015097
412.000000	-0.015246
411.000000	-0.015515
410.000000	-0.015807
409.000000	-0.015531
408.000000	-0.015256
407.000000	-0.015248
406.000000	-0.015577
405.000000	-0.015633
404.000000	-0.015205
403.000000	-0.015223
402.000000	-0.015516
401.000000	-0.015382
400.000000	-0.015207
399.000000	-0.015586
398.000000	-0.015649
397.000000	-0.015476
396.000000	-0.015549
395.000000	-0.015565
394.000000	-0.015951
393.000000	-0.015827
392.000000	-0.015370
391.000000	-0.015906
390.000000	-0.015422
389.000000	-0.015305
388.000000	-0.016516
387.000000	-0.016157
386.000000	-0.015714
385.000000	-0.016417
384.000000	-0.017133
383.000000	-0.016098
382.000000	-0.015424
381.000000	-0.016447
380.000000	-0.016869
379.000000	-0.015692
378.000000	-0.014495
377.000000	-0.015654
376.000000	-0.016122
375.000000	-0.015654
374.000000	-0.017293
373.000000	-0.015780
372.000000	-0.015844
371.000000	-0.017193
370.000000	-0.017212
369.000000	-0.014832
368.000000	-0.016021
367.000000	-0.016472
366.000000	-0.017988
365.000000	-0.018627
364.000000	-0.016991
363.000000	-0.014471
362.000000	-0.015397
361.000000	-0.016973
360.000000	-0.017241
359.000000	-0.017742
358.000000	-0.018319
357.000000	-0.017891
356.000000	-0.017912
355.000000	-0.016223
354.000000	-0.016410
353.000000	-0.017554
352.000000	-0.014517
351.000000	-0.018898
350.000000	-0.020365
349.000000	-0.020980
348.000000	-0.018765
347.000000	-0.019203
346.000000	-0.018465
345.000000	-0.017858
344.000000	-0.019628
343.000000	-0.019915
342.000000	-0.018651
341.000000	-0.018126
340.000000	-0.019305
339.000000	-0.019224
338.000000	-0.016440
337.000000	-0.018268
336.000000	-0.018357
335.000000	-0.017259
334.000000	-0.019782
333.000000	-0.018920
332.000000	-0.017991
331.000000	-0.018152
330.000000	-0.019282
329.000000	-0.019924
328.000000	-0.015525
327.000000	-0.013305
326.000000	-0.016272
325.000000	-0.019276
324.000000	-0.011651
323.000000	-0.013414
322.000000	-0.013473
321.000000	-0.011680
320.000000	-0.010524
319.000000	-0.012482
318.000000	-0.010994
317.000000	-0.012306
316.000000	-0.008991
315.000000	-0.010029
314.000000	-0.009026
313.000000	-0.006621
312.000000	-0.008275
311.000000	-0.004742
310.000000	-0.003241
309.000000	-0.002617
308.000000	-0.003279
307.000000	-0.002963
306.000000	0.001393
305.000000	0.002616
304.000000	0.004192
303.000000	0.007833
302.000000	0.009794
301.000000	0.011293
300.000000	0.013120
