PE UV       SUBTECH     SPECTRUM    ASCII       PEDS        4.00        
   -1
PETIT_90.Sample.Raw.asc
20/12/16
12:10:39.00
20/12/16
12:10:39.00
CNRS
RCC2374_C_DM
300.000000
1
Lambda 850
850L1011221
PerkinElmer UV WinLab 6.0.3.0730 / 1.61.00 Lambda 800

0
0
2
0
0
UV/VIS
1
1
1
RBeamAtt,SBeamAtt,150mm sphere / downward view
0
0
0
0
Fix
 
0
0.2
0
0
0
 
 
 
0
 
0
319.2
0
Front
50
 
S:100 R:100
 
0
0
0
 
0
 
 
 
0
 
 
0
0
0
0
0
 
 
 
 
0
0


#HDR
-1
-1
#GR
nm
A
1.0
0.0
800.000000
-1.000000
501
8
0.195271
-0.014198
#DATA
800.000000	-0.011779
799.000000	-0.013846
798.000000	-0.012885
797.000000	-0.012269
796.000000	-0.012766
795.000000	-0.013499
794.000000	-0.013252
793.000000	-0.013343
792.000000	-0.012128
791.000000	-0.013108
790.000000	-0.013486
789.000000	-0.013946
788.000000	-0.012387
787.000000	-0.011855
786.000000	-0.013009
785.000000	-0.014198
784.000000	-0.013021
783.000000	-0.012861
782.000000	-0.013697
781.000000	-0.013931
780.000000	-0.012322
779.000000	-0.012775
778.000000	-0.012411
777.000000	-0.011284
776.000000	-0.012256
775.000000	-0.011914
774.000000	-0.011578
773.000000	-0.011688
772.000000	-0.011946
771.000000	-0.013047
770.000000	-0.012605
769.000000	-0.011923
768.000000	-0.012487
767.000000	-0.012622
766.000000	-0.012588
765.000000	-0.012563
764.000000	-0.011936
763.000000	-0.012692
762.000000	-0.012910
761.000000	-0.013051
760.000000	-0.012813
759.000000	-0.012322
758.000000	-0.012925
757.000000	-0.011954
756.000000	-0.012913
755.000000	-0.012753
754.000000	-0.012486
753.000000	-0.013029
752.000000	-0.012723
751.000000	-0.012206
750.000000	-0.012882
749.000000	-0.012309
748.000000	-0.012738
747.000000	-0.012614
746.000000	-0.012728
745.000000	-0.012204
744.000000	-0.011493
743.000000	-0.012812
742.000000	-0.011863
741.000000	-0.012897
740.000000	-0.012942
739.000000	-0.013047
738.000000	-0.012570
737.000000	-0.013102
736.000000	-0.013294
735.000000	-0.012406
734.000000	-0.013323
733.000000	-0.013168
732.000000	-0.013047
731.000000	-0.012348
730.000000	-0.013001
729.000000	-0.013767
728.000000	-0.012889
727.000000	-0.012764
726.000000	-0.012837
725.000000	-0.012946
724.000000	-0.012627
723.000000	-0.012905
722.000000	-0.013062
721.000000	-0.013217
720.000000	-0.013699
719.000000	-0.012243
718.000000	-0.012599
717.000000	-0.012717
716.000000	-0.012240
715.000000	-0.012493
714.000000	-0.011956
713.000000	-0.011470
712.000000	-0.011028
711.000000	-0.010673
710.000000	-0.010223
709.000000	-0.009913
708.000000	-0.009757
707.000000	-0.008977
706.000000	-0.007278
705.000000	-0.006402
704.000000	-0.005175
703.000000	-0.003725
702.000000	-0.002324
701.000000	-0.000375
700.000000	0.002241
699.000000	0.004550
698.000000	0.007532
697.000000	0.010975
696.000000	0.015296
695.000000	0.019924
694.000000	0.025150
693.000000	0.030365
692.000000	0.036461
691.000000	0.043028
690.000000	0.049689
689.000000	0.056280
688.000000	0.063025
687.000000	0.070062
686.000000	0.076174
685.000000	0.082774
684.000000	0.088642
683.000000	0.093384
682.000000	0.097218
681.000000	0.100219
680.000000	0.102161
679.000000	0.102848
678.000000	0.102637
677.000000	0.102218
676.000000	0.101422
675.000000	0.099883
674.000000	0.098368
673.000000	0.096260
672.000000	0.093027
671.000000	0.090023
670.000000	0.086615
669.000000	0.082555
668.000000	0.078015
667.000000	0.073439
666.000000	0.068700
665.000000	0.063650
664.000000	0.058670
663.000000	0.053584
662.000000	0.048830
661.000000	0.044778
660.000000	0.040518
659.000000	0.036511
658.000000	0.033310
657.000000	0.030317
656.000000	0.027672
655.000000	0.025939
654.000000	0.024594
653.000000	0.023109
652.000000	0.022139
651.000000	0.021211
650.000000	0.020475
649.000000	0.020331
648.000000	0.020611
647.000000	0.020869
646.000000	0.020684
645.000000	0.020523
644.000000	0.021164
643.000000	0.022008
642.000000	0.022122
641.000000	0.022592
640.000000	0.022952
639.000000	0.023273
638.000000	0.024111
637.000000	0.024370
636.000000	0.024481
635.000000	0.024817
634.000000	0.025300
633.000000	0.025598
632.000000	0.025616
631.000000	0.025378
630.000000	0.025513
629.000000	0.025605
628.000000	0.025586
627.000000	0.025171
626.000000	0.024794
625.000000	0.024534
624.000000	0.024496
623.000000	0.023794
622.000000	0.023471
621.000000	0.023557
620.000000	0.022866
619.000000	0.022603
618.000000	0.021693
617.000000	0.021161
616.000000	0.020165
615.000000	0.019131
614.000000	0.018629
613.000000	0.017989
612.000000	0.017194
611.000000	0.016612
610.000000	0.016264
609.000000	0.014523
608.000000	0.014205
607.000000	0.013745
606.000000	0.013226
605.000000	0.012647
604.000000	0.012018
603.000000	0.012144
602.000000	0.012029
601.000000	0.011740
600.000000	0.010991
599.000000	0.011574
598.000000	0.011300
597.000000	0.010407
596.000000	0.010818
595.000000	0.011039
594.000000	0.011229
593.000000	0.011139
592.000000	0.010846
591.000000	0.011122
590.000000	0.011383
589.000000	0.011565
588.000000	0.010928
587.000000	0.010811
586.000000	0.011283
585.000000	0.011196
584.000000	0.011187
583.000000	0.011795
582.000000	0.012097
581.000000	0.012187
580.000000	0.012548
579.000000	0.013292
578.000000	0.013773
577.000000	0.015517
576.000000	0.015409
575.000000	0.016773
574.000000	0.018059
573.000000	0.019446
572.000000	0.021063
571.000000	0.022269
570.000000	0.023792
569.000000	0.024947
568.000000	0.027462
567.000000	0.029001
566.000000	0.030802
565.000000	0.032933
564.000000	0.034639
563.000000	0.036473
562.000000	0.038912
561.000000	0.041784
560.000000	0.043919
559.000000	0.047155
558.000000	0.049739
557.000000	0.052825
556.000000	0.055266
555.000000	0.057358
554.000000	0.060438
553.000000	0.062345
552.000000	0.064489
551.000000	0.066237
550.000000	0.067156
549.000000	0.068822
548.000000	0.069738
547.000000	0.070081
546.000000	0.071111
545.000000	0.070788
544.000000	0.071440
543.000000	0.071080
542.000000	0.071212
541.000000	0.070323
540.000000	0.070144
539.000000	0.069610
538.000000	0.069533
537.000000	0.069385
536.000000	0.069085
535.000000	0.068442
534.000000	0.068059
533.000000	0.067706
532.000000	0.067469
531.000000	0.067323
530.000000	0.066604
529.000000	0.066505
528.000000	0.066726
527.000000	0.067035
526.000000	0.067337
525.000000	0.067410
524.000000	0.067790
523.000000	0.068679
522.000000	0.068849
521.000000	0.070455
520.000000	0.072016
519.000000	0.073212
518.000000	0.075328
517.000000	0.077200
516.000000	0.079569
515.000000	0.081567
514.000000	0.084329
513.000000	0.086752
512.000000	0.089133
511.000000	0.091996
510.000000	0.095280
509.000000	0.098218
508.000000	0.101830
507.000000	0.104727
506.000000	0.108498
505.000000	0.111680
504.000000	0.115311
503.000000	0.118027
502.000000	0.121106
501.000000	0.124051
500.000000	0.126306
499.000000	0.128198
498.000000	0.129644
497.000000	0.130157
496.000000	0.131056
495.000000	0.131943
494.000000	0.132445
493.000000	0.131561
492.000000	0.131461
491.000000	0.130667
490.000000	0.129843
489.000000	0.129119
488.000000	0.128021
487.000000	0.127091
486.000000	0.126090
485.000000	0.124910
484.000000	0.124066
483.000000	0.123349
482.000000	0.122741
481.000000	0.122368
480.000000	0.122682
479.000000	0.122892
478.000000	0.123442
477.000000	0.123434
476.000000	0.124465
475.000000	0.125123
474.000000	0.125631
473.000000	0.126666
472.000000	0.127728
471.000000	0.129289
470.000000	0.130402
469.000000	0.131280
468.000000	0.132265
467.000000	0.132440
466.000000	0.133018
465.000000	0.133705
464.000000	0.134595
463.000000	0.135148
462.000000	0.135635
461.000000	0.135794
460.000000	0.136149
459.000000	0.136874
458.000000	0.137855
457.000000	0.138972
456.000000	0.140292
455.000000	0.141602
454.000000	0.144243
453.000000	0.147137
452.000000	0.150488
451.000000	0.154382
450.000000	0.157922
449.000000	0.162500
448.000000	0.167298
447.000000	0.171868
446.000000	0.176206
445.000000	0.180067
444.000000	0.184820
443.000000	0.188203
442.000000	0.191103
441.000000	0.193146
440.000000	0.194404
439.000000	0.195058
438.000000	0.195271
437.000000	0.195246
436.000000	0.194015
435.000000	0.192406
434.000000	0.191060
433.000000	0.189756
432.000000	0.187857
431.000000	0.185399
430.000000	0.183798
429.000000	0.182418
428.000000	0.180381
427.000000	0.178864
426.000000	0.177699
425.000000	0.176525
424.000000	0.175878
423.000000	0.175534
422.000000	0.174846
421.000000	0.173727
420.000000	0.173070
419.000000	0.172565
418.000000	0.172039
417.000000	0.171761
416.000000	0.170714
415.000000	0.169334
414.000000	0.168361
413.000000	0.166636
412.000000	0.164972
411.000000	0.163837
410.000000	0.161722
409.000000	0.159827
408.000000	0.158341
407.000000	0.156455
406.000000	0.154701
405.000000	0.153067
404.000000	0.151585
403.000000	0.150041
402.000000	0.149301
401.000000	0.149201
400.000000	0.149602
399.000000	0.149081
398.000000	0.148883
397.000000	0.149172
396.000000	0.149084
395.000000	0.151075
394.000000	0.151610
393.000000	0.151519
392.000000	0.152596
391.000000	0.152313
390.000000	0.152229
389.000000	0.152787
388.000000	0.153536
387.000000	0.154571
386.000000	0.154268
385.000000	0.153978
384.000000	0.152757
383.000000	0.152398
382.000000	0.152225
381.000000	0.149595
380.000000	0.147415
379.000000	0.146317
378.000000	0.140434
377.000000	0.133156
376.000000	0.130267
375.000000	0.127651
374.000000	0.122222
373.000000	0.120706
372.000000	0.115160
371.000000	0.109924
370.000000	0.107410
369.000000	0.105425
368.000000	0.102521
367.000000	0.097424
366.000000	0.093367
365.000000	0.091014
364.000000	0.090691
363.000000	0.088521
362.000000	0.085855
361.000000	0.080984
360.000000	0.079593
359.000000	0.076563
358.000000	0.075187
357.000000	0.073938
356.000000	0.072347
355.000000	0.072627
354.000000	0.070608
353.000000	0.068352
352.000000	0.068565
351.000000	0.066666
350.000000	0.066934
349.000000	0.064588
348.000000	0.066155
347.000000	0.065348
346.000000	0.066074
345.000000	0.065772
344.000000	0.065555
343.000000	0.062583
342.000000	0.064407
341.000000	0.065613
340.000000	0.066291
339.000000	0.064401
338.000000	0.065986
337.000000	0.064818
336.000000	0.064167
335.000000	0.063217
334.000000	0.060636
333.000000	0.060709
332.000000	0.060420
331.000000	0.060190
330.000000	0.058159
329.000000	0.056081
328.000000	0.056350
327.000000	0.059181
326.000000	0.056308
325.000000	0.052627
324.000000	0.057585
323.000000	0.057509
322.000000	0.052452
321.000000	0.055038
320.000000	0.057523
319.000000	0.054820
318.000000	0.057812
317.000000	0.057626
316.000000	0.057854
315.000000	0.059492
314.000000	0.059467
313.000000	0.061028
312.000000	0.062473
311.000000	0.064968
310.000000	0.067090
309.000000	0.068219
308.000000	0.069581
307.000000	0.072484
306.000000	0.077404
305.000000	0.081897
304.000000	0.083889
303.000000	0.088874
302.000000	0.094876
301.000000	0.096285
300.000000	0.102003
