PE UV       SUBTECH     SPECTRUM    ASCII       PEDS        4.00        
   -1
PETIT_81.Sample.Raw.asc
20/12/16
11:14:13.00
20/12/16
11:14:13.00
CNRS
RCC2379_C_DM
300.000000
1
Lambda 850
850L1011221
PerkinElmer UV WinLab 6.0.3.0730 / 1.61.00 Lambda 800

0
0
2
0
0
UV/VIS
1
1
1
RBeamAtt,SBeamAtt,150mm sphere / downward view
0
0
0
0
Fix
 
0
0.2
0
0
0
 
 
 
0
 
0
319.2
0
Front
50
 
S:100 R:100
 
0
0
0
 
0
 
 
 
0
 
 
0
0
0
0
0
 
 
 
 
0
0


#HDR
-1
-1
#GR
nm
A
1.0
0.0
800.000000
-1.000000
501
8
0.252320
-0.014598
#DATA
800.000000	-0.012282
799.000000	-0.011958
798.000000	-0.014530
797.000000	-0.012922
796.000000	-0.011799
795.000000	-0.012582
794.000000	-0.013183
793.000000	-0.013125
792.000000	-0.012959
791.000000	-0.013089
790.000000	-0.013574
789.000000	-0.013614
788.000000	-0.013721
787.000000	-0.012229
786.000000	-0.013034
785.000000	-0.013266
784.000000	-0.012960
783.000000	-0.013602
782.000000	-0.014348
781.000000	-0.014561
780.000000	-0.012399
779.000000	-0.013818
778.000000	-0.013257
777.000000	-0.012108
776.000000	-0.011612
775.000000	-0.012915
774.000000	-0.012377
773.000000	-0.013652
772.000000	-0.013723
771.000000	-0.013268
770.000000	-0.013265
769.000000	-0.013190
768.000000	-0.014598
767.000000	-0.012529
766.000000	-0.012692
765.000000	-0.013764
764.000000	-0.012607
763.000000	-0.013349
762.000000	-0.011945
761.000000	-0.013231
760.000000	-0.013765
759.000000	-0.012603
758.000000	-0.012228
757.000000	-0.011717
756.000000	-0.012671
755.000000	-0.013087
754.000000	-0.013214
753.000000	-0.013729
752.000000	-0.013123
751.000000	-0.012480
750.000000	-0.013522
749.000000	-0.012619
748.000000	-0.012548
747.000000	-0.012479
746.000000	-0.013259
745.000000	-0.013595
744.000000	-0.012870
743.000000	-0.013622
742.000000	-0.012627
741.000000	-0.013228
740.000000	-0.013437
739.000000	-0.012848
738.000000	-0.013138
737.000000	-0.013455
736.000000	-0.013453
735.000000	-0.013314
734.000000	-0.014558
733.000000	-0.013835
732.000000	-0.013211
731.000000	-0.013169
730.000000	-0.013937
729.000000	-0.014093
728.000000	-0.013520
727.000000	-0.014168
726.000000	-0.014320
725.000000	-0.013685
724.000000	-0.013100
723.000000	-0.013608
722.000000	-0.013724
721.000000	-0.014104
720.000000	-0.013706
719.000000	-0.013182
718.000000	-0.013049
717.000000	-0.012920
716.000000	-0.012743
715.000000	-0.012488
714.000000	-0.011772
713.000000	-0.011470
712.000000	-0.011410
711.000000	-0.011236
710.000000	-0.010218
709.000000	-0.009421
708.000000	-0.008765
707.000000	-0.008030
706.000000	-0.006440
705.000000	-0.005491
704.000000	-0.003623
703.000000	-0.001801
702.000000	0.000316
701.000000	0.003075
700.000000	0.006000
699.000000	0.008739
698.000000	0.012197
697.000000	0.016399
696.000000	0.020820
695.000000	0.026042
694.000000	0.031889
693.000000	0.038160
692.000000	0.045152
691.000000	0.052353
690.000000	0.059940
689.000000	0.066882
688.000000	0.073827
687.000000	0.081380
686.000000	0.088706
685.000000	0.095437
684.000000	0.101086
683.000000	0.106257
682.000000	0.110441
681.000000	0.113520
680.000000	0.115344
679.000000	0.115729
678.000000	0.115615
677.000000	0.114717
676.000000	0.113476
675.000000	0.111983
674.000000	0.109758
673.000000	0.107163
672.000000	0.104063
671.000000	0.100803
670.000000	0.097132
669.000000	0.093006
668.000000	0.088631
667.000000	0.084447
666.000000	0.079790
665.000000	0.074464
664.000000	0.069262
663.000000	0.064046
662.000000	0.059011
661.000000	0.054711
660.000000	0.050605
659.000000	0.047029
658.000000	0.043927
657.000000	0.040384
656.000000	0.037615
655.000000	0.036009
654.000000	0.034786
653.000000	0.033850
652.000000	0.032870
651.000000	0.031930
650.000000	0.031613
649.000000	0.031021
648.000000	0.031013
647.000000	0.031128
646.000000	0.031154
645.000000	0.031447
644.000000	0.032152
643.000000	0.032108
642.000000	0.032282
641.000000	0.033456
640.000000	0.033859
639.000000	0.034080
638.000000	0.034790
637.000000	0.034970
636.000000	0.035060
635.000000	0.035415
634.000000	0.035635
633.000000	0.035724
632.000000	0.035528
631.000000	0.035099
630.000000	0.035200
629.000000	0.035060
628.000000	0.034677
627.000000	0.034584
626.000000	0.034302
625.000000	0.033412
624.000000	0.032996
623.000000	0.032198
622.000000	0.031842
621.000000	0.031787
620.000000	0.031005
619.000000	0.030418
618.000000	0.029500
617.000000	0.029023
616.000000	0.028046
615.000000	0.027113
614.000000	0.026186
613.000000	0.025303
612.000000	0.024083
611.000000	0.023344
610.000000	0.022750
609.000000	0.021212
608.000000	0.020864
607.000000	0.020186
606.000000	0.019412
605.000000	0.019448
604.000000	0.018702
603.000000	0.018652
602.000000	0.018079
601.000000	0.018152
600.000000	0.017746
599.000000	0.017450
598.000000	0.017453
597.000000	0.017152
596.000000	0.017256
595.000000	0.017558
594.000000	0.017830
593.000000	0.017630
592.000000	0.017373
591.000000	0.017901
590.000000	0.017755
589.000000	0.017641
588.000000	0.017616
587.000000	0.017714
586.000000	0.018027
585.000000	0.017852
584.000000	0.017800
583.000000	0.018521
582.000000	0.018562
581.000000	0.019239
580.000000	0.019588
579.000000	0.020504
578.000000	0.021675
577.000000	0.023140
576.000000	0.024339
575.000000	0.026040
574.000000	0.027837
573.000000	0.029723
572.000000	0.031731
571.000000	0.033273
570.000000	0.034859
569.000000	0.036120
568.000000	0.037106
567.000000	0.038510
566.000000	0.039322
565.000000	0.039752
564.000000	0.040234
563.000000	0.040426
562.000000	0.041183
561.000000	0.042586
560.000000	0.042600
559.000000	0.043375
558.000000	0.043618
557.000000	0.044538
556.000000	0.044635
555.000000	0.045264
554.000000	0.045983
553.000000	0.046400
552.000000	0.046861
551.000000	0.048040
550.000000	0.047620
549.000000	0.049416
548.000000	0.050178
547.000000	0.050194
546.000000	0.050860
545.000000	0.051240
544.000000	0.051663
543.000000	0.052026
542.000000	0.052611
541.000000	0.052361
540.000000	0.052690
539.000000	0.053293
538.000000	0.053695
537.000000	0.054012
536.000000	0.054713
535.000000	0.055318
534.000000	0.055297
533.000000	0.055631
532.000000	0.056710
531.000000	0.057524
530.000000	0.057703
529.000000	0.058814
528.000000	0.060421
527.000000	0.061461
526.000000	0.062705
525.000000	0.064047
524.000000	0.065421
523.000000	0.067998
522.000000	0.069395
521.000000	0.071972
520.000000	0.074858
519.000000	0.077736
518.000000	0.081040
517.000000	0.084742
516.000000	0.088012
515.000000	0.091187
514.000000	0.095840
513.000000	0.099463
512.000000	0.103164
511.000000	0.107289
510.000000	0.111871
509.000000	0.116497
508.000000	0.121004
507.000000	0.125994
506.000000	0.130080
505.000000	0.134512
504.000000	0.139445
503.000000	0.143797
502.000000	0.148140
501.000000	0.151970
500.000000	0.155567
499.000000	0.158899
498.000000	0.161126
497.000000	0.163099
496.000000	0.164777
495.000000	0.166893
494.000000	0.167919
493.000000	0.168928
492.000000	0.169478
491.000000	0.169564
490.000000	0.169522
489.000000	0.169562
488.000000	0.169279
487.000000	0.168672
486.000000	0.168004
485.000000	0.167653
484.000000	0.168315
483.000000	0.167749
482.000000	0.166921
481.000000	0.166565
480.000000	0.167377
479.000000	0.167706
478.000000	0.168286
477.000000	0.169300
476.000000	0.171027
475.000000	0.172532
474.000000	0.173738
473.000000	0.175173
472.000000	0.176909
471.000000	0.178534
470.000000	0.180604
469.000000	0.182666
468.000000	0.184611
467.000000	0.186193
466.000000	0.187400
465.000000	0.189375
464.000000	0.190863
463.000000	0.192019
462.000000	0.192714
461.000000	0.193095
460.000000	0.194140
459.000000	0.195814
458.000000	0.197323
457.000000	0.198571
456.000000	0.199817
455.000000	0.201222
454.000000	0.203580
453.000000	0.206333
452.000000	0.208858
451.000000	0.212346
450.000000	0.216274
449.000000	0.220614
448.000000	0.225239
447.000000	0.229378
446.000000	0.233346
445.000000	0.237083
444.000000	0.241495
443.000000	0.244587
442.000000	0.247308
441.000000	0.249684
440.000000	0.251433
439.000000	0.252320
438.000000	0.252097
437.000000	0.251860
436.000000	0.251376
435.000000	0.250755
434.000000	0.249892
433.000000	0.248367
432.000000	0.246280
431.000000	0.244059
430.000000	0.242350
429.000000	0.240853
428.000000	0.239383
427.000000	0.238183
426.000000	0.236698
425.000000	0.235095
424.000000	0.234086
423.000000	0.233550
422.000000	0.232721
421.000000	0.231063
420.000000	0.230964
419.000000	0.230907
418.000000	0.229909
417.000000	0.229240
416.000000	0.228258
415.000000	0.227270
414.000000	0.226411
413.000000	0.225065
412.000000	0.223568
411.000000	0.222184
410.000000	0.220851
409.000000	0.219235
408.000000	0.218115
407.000000	0.216771
406.000000	0.214421
405.000000	0.213216
404.000000	0.212779
403.000000	0.212235
402.000000	0.212291
401.000000	0.212715
400.000000	0.212783
399.000000	0.212042
398.000000	0.212397
397.000000	0.212942
396.000000	0.213409
395.000000	0.214255
394.000000	0.214730
393.000000	0.215290
392.000000	0.215879
391.000000	0.215351
390.000000	0.215397
389.000000	0.214166
388.000000	0.212499
387.000000	0.210567
386.000000	0.209078
385.000000	0.206831
384.000000	0.203793
383.000000	0.200846
382.000000	0.198342
381.000000	0.194072
380.000000	0.189175
379.000000	0.185386
378.000000	0.179905
377.000000	0.171359
376.000000	0.166644
375.000000	0.162254
374.000000	0.156183
373.000000	0.152630
372.000000	0.147684
371.000000	0.142142
370.000000	0.137722
369.000000	0.133653
368.000000	0.129524
367.000000	0.126343
366.000000	0.122801
365.000000	0.117172
364.000000	0.116969
363.000000	0.115037
362.000000	0.111392
361.000000	0.108960
360.000000	0.105817
359.000000	0.103989
358.000000	0.101264
357.000000	0.098849
356.000000	0.097193
355.000000	0.097865
354.000000	0.096263
353.000000	0.092101
352.000000	0.093428
351.000000	0.090910
350.000000	0.092662
349.000000	0.089431
348.000000	0.089379
347.000000	0.090489
346.000000	0.090053
345.000000	0.090501
344.000000	0.090261
343.000000	0.090131
342.000000	0.089521
341.000000	0.089526
340.000000	0.088915
339.000000	0.089014
338.000000	0.090041
337.000000	0.087546
336.000000	0.085428
335.000000	0.085400
334.000000	0.084152
333.000000	0.083961
332.000000	0.084459
331.000000	0.083231
330.000000	0.082129
329.000000	0.079095
328.000000	0.079052
327.000000	0.081505
326.000000	0.078323
325.000000	0.074593
324.000000	0.080847
323.000000	0.077721
322.000000	0.072421
321.000000	0.080131
320.000000	0.077901
319.000000	0.079187
318.000000	0.074577
317.000000	0.075347
316.000000	0.073525
315.000000	0.074872
314.000000	0.076541
313.000000	0.081003
312.000000	0.079287
311.000000	0.080381
310.000000	0.084091
309.000000	0.088085
308.000000	0.088841
307.000000	0.090626
306.000000	0.094469
305.000000	0.101238
304.000000	0.105021
303.000000	0.110237
302.000000	0.115861
301.000000	0.123934
300.000000	0.128411
