PE UV       SUBTECH     SPECTRUM    ASCII       PEDS        4.00        
   -1
PETIT_58.Sample.Raw.asc
20/12/16
09:22:43.00
20/12/16
09:22:43.00
CNRS
zeroair1
300.000000
1
Lambda 850
850L1011221
PerkinElmer UV WinLab 6.0.3.0730 / 1.61.00 Lambda 800

0
0
2
0
0
UV/VIS
1
1
1
RBeamAtt,SBeamAtt,150mm sphere / downward view
0
0
0
0
Fix
 
0
0.2
0
0
0
 
 
 
0
 
0
319.2
0
Front
50
 
S:100 R:100
 
0
0
0
 
0
 
 
 
0
 
 
0
0
0
0
0
 
 
 
 
0
0


#HDR
-1
-1
#GR
nm
A
1.0
0.0
800.000000
-1.000000
501
8
0.003975
-0.004173
#DATA
800.000000	0.000077
799.000000	-0.000895
798.000000	-0.001849
797.000000	-0.000480
796.000000	0.000415
795.000000	-0.000810
794.000000	-0.000235
793.000000	-0.000319
792.000000	-0.000159
791.000000	-0.001237
790.000000	-0.000184
789.000000	-0.001115
788.000000	-0.000965
787.000000	0.000906
786.000000	0.000312
785.000000	0.000080
784.000000	0.000062
783.000000	-0.000779
782.000000	-0.001098
781.000000	-0.001305
780.000000	-0.000171
779.000000	-0.000190
778.000000	-0.000309
777.000000	0.000232
776.000000	0.000544
775.000000	0.000076
774.000000	-0.000300
773.000000	-0.000200
772.000000	-0.000884
771.000000	0.000507
770.000000	0.000091
769.000000	-0.000816
768.000000	-0.000378
767.000000	-0.000086
766.000000	-0.000401
765.000000	-0.000659
764.000000	-0.000354
763.000000	-0.000490
762.000000	0.000931
761.000000	-0.000171
760.000000	-0.000474
759.000000	0.000370
758.000000	0.000508
757.000000	0.001200
756.000000	0.000883
755.000000	0.000600
754.000000	-0.000261
753.000000	-0.000199
752.000000	0.000302
751.000000	0.000809
750.000000	0.000123
749.000000	0.000664
748.000000	-0.000457
747.000000	-0.000437
746.000000	0.000041
745.000000	-0.000005
744.000000	-0.000827
743.000000	-0.000662
742.000000	0.001076
741.000000	0.000711
740.000000	-0.000103
739.000000	0.000328
738.000000	0.000385
737.000000	-0.000660
736.000000	-0.000207
735.000000	0.000405
734.000000	-0.000734
733.000000	-0.000527
732.000000	-0.000437
731.000000	0.000384
730.000000	-0.000337
729.000000	-0.000591
728.000000	0.000529
727.000000	0.000499
726.000000	-0.000388
725.000000	0.000586
724.000000	0.001207
723.000000	0.000388
722.000000	-0.000323
721.000000	-0.000417
720.000000	-0.000341
719.000000	0.000292
718.000000	0.000299
717.000000	-0.000317
716.000000	-0.000095
715.000000	-0.000193
714.000000	0.000336
713.000000	0.000130
712.000000	0.000005
711.000000	0.000052
710.000000	-0.000438
709.000000	-0.000009
708.000000	-0.000860
707.000000	-0.000362
706.000000	0.000741
705.000000	0.000112
704.000000	-0.000084
703.000000	0.000178
702.000000	0.000385
701.000000	0.000380
700.000000	0.000375
699.000000	0.000169
698.000000	-0.000132
697.000000	-0.000364
696.000000	-0.000245
695.000000	-0.000224
694.000000	-0.000428
693.000000	-0.000269
692.000000	0.000385
691.000000	0.000333
690.000000	0.000035
689.000000	0.000264
688.000000	0.000021
687.000000	0.000295
686.000000	0.000130
685.000000	0.000086
684.000000	0.000132
683.000000	0.000030
682.000000	0.000134
681.000000	-0.000180
680.000000	-0.000025
679.000000	-0.000115
678.000000	-0.000361
677.000000	-0.000263
676.000000	0.000334
675.000000	0.000728
674.000000	0.000622
673.000000	0.000315
672.000000	0.000174
671.000000	0.000287
670.000000	-0.000008
669.000000	0.000121
668.000000	-0.000266
667.000000	-0.000630
666.000000	-0.000224
665.000000	0.000320
664.000000	0.000364
663.000000	0.000234
662.000000	0.000254
661.000000	0.000267
660.000000	0.000277
659.000000	0.000405
658.000000	0.000114
657.000000	0.000000
656.000000	0.000219
655.000000	0.000373
654.000000	0.000429
653.000000	0.000407
652.000000	0.000422
651.000000	0.000256
650.000000	-0.000082
649.000000	-0.000632
648.000000	-0.000334
647.000000	-0.000244
646.000000	-0.000245
645.000000	-0.000306
644.000000	-0.000255
643.000000	-0.000714
642.000000	-0.000358
641.000000	0.000271
640.000000	0.000223
639.000000	0.000132
638.000000	-0.000173
637.000000	0.000129
636.000000	-0.000122
635.000000	-0.000348
634.000000	-0.000020
633.000000	0.000547
632.000000	0.000421
631.000000	-0.000138
630.000000	0.000146
629.000000	0.000356
628.000000	-0.000103
627.000000	0.000000
626.000000	0.000188
625.000000	0.000062
624.000000	-0.000058
623.000000	-0.000265
622.000000	-0.000165
621.000000	0.000177
620.000000	0.000250
619.000000	0.000059
618.000000	0.000051
617.000000	-0.000081
616.000000	-0.000275
615.000000	-0.000334
614.000000	0.000018
613.000000	0.000058
612.000000	0.000110
611.000000	-0.000206
610.000000	0.000317
609.000000	-0.000030
608.000000	-0.000328
607.000000	-0.000032
606.000000	-0.000006
605.000000	0.000200
604.000000	0.000137
603.000000	0.000415
602.000000	0.000337
601.000000	0.000233
600.000000	0.000456
599.000000	0.000213
598.000000	-0.000279
597.000000	-0.000281
596.000000	-0.000176
595.000000	-0.000085
594.000000	-0.000024
593.000000	0.000385
592.000000	-0.000221
591.000000	-0.000028
590.000000	0.000279
589.000000	0.000381
588.000000	-0.000283
587.000000	-0.000061
586.000000	0.000315
585.000000	0.000411
584.000000	0.000086
583.000000	0.000034
582.000000	-0.000107
581.000000	-0.000201
580.000000	-0.000161
579.000000	-0.000518
578.000000	-0.000104
577.000000	0.000603
576.000000	-0.000000
575.000000	0.000287
574.000000	0.000096
573.000000	-0.000021
572.000000	0.000030
571.000000	0.000276
570.000000	-0.000511
569.000000	0.000201
568.000000	0.000017
567.000000	0.000430
566.000000	0.000044
565.000000	-0.000416
564.000000	-0.000092
563.000000	0.000161
562.000000	0.000015
561.000000	0.000157
560.000000	-0.000243
559.000000	0.000239
558.000000	-0.000073
557.000000	0.000404
556.000000	-0.000052
555.000000	-0.000498
554.000000	-0.000310
553.000000	-0.000035
552.000000	0.000067
551.000000	-0.000087
550.000000	-0.000573
549.000000	-0.000005
548.000000	0.000018
547.000000	-0.000040
546.000000	-0.000009
545.000000	-0.000190
544.000000	0.000267
543.000000	-0.000202
542.000000	0.000109
541.000000	-0.000229
540.000000	-0.000377
539.000000	-0.000319
538.000000	0.000115
537.000000	0.000369
536.000000	0.000314
535.000000	0.000320
534.000000	0.000124
533.000000	0.000029
532.000000	0.000221
531.000000	-0.000049
530.000000	-0.000493
529.000000	-0.000138
528.000000	0.000235
527.000000	0.000172
526.000000	0.000368
525.000000	-0.000048
524.000000	-0.000392
523.000000	0.000135
522.000000	-0.000717
521.000000	-0.000030
520.000000	0.000170
519.000000	-0.000175
518.000000	0.000255
517.000000	0.000341
516.000000	0.000377
515.000000	0.000178
514.000000	0.000604
513.000000	0.000223
512.000000	-0.000294
511.000000	-0.000259
510.000000	0.000214
509.000000	-0.000272
508.000000	-0.000009
507.000000	-0.000188
506.000000	-0.000167
505.000000	-0.000372
504.000000	0.000135
503.000000	0.000156
502.000000	0.000078
501.000000	0.000436
500.000000	0.000459
499.000000	0.000209
498.000000	-0.000388
497.000000	-0.000547
496.000000	-0.000359
495.000000	0.000351
494.000000	0.000053
493.000000	-0.000305
492.000000	-0.000016
491.000000	0.000084
490.000000	-0.000053
489.000000	-0.000043
488.000000	0.000281
487.000000	0.000107
486.000000	0.000061
485.000000	-0.000144
484.000000	0.000000
483.000000	-0.000476
482.000000	-0.000197
481.000000	-0.000315
480.000000	-0.000271
479.000000	-0.000074
478.000000	-0.000040
477.000000	-0.000215
476.000000	0.000035
475.000000	-0.000249
474.000000	-0.000395
473.000000	0.000056
472.000000	0.000105
471.000000	-0.000111
470.000000	-0.000325
469.000000	0.000157
468.000000	0.000325
467.000000	-0.000164
466.000000	-0.000199
465.000000	-0.000159
464.000000	0.000251
463.000000	0.000309
462.000000	0.000249
461.000000	-0.000304
460.000000	-0.000123
459.000000	0.000223
458.000000	0.000281
457.000000	0.000158
456.000000	0.000214
455.000000	0.000316
454.000000	0.000030
453.000000	-0.000387
452.000000	-0.000564
451.000000	-0.000230
450.000000	0.000167
449.000000	0.000365
448.000000	0.000181
447.000000	0.000065
446.000000	0.000004
445.000000	-0.000338
444.000000	0.000248
443.000000	0.000288
442.000000	-0.000047
441.000000	-0.000036
440.000000	0.000022
439.000000	-0.000082
438.000000	-0.000210
437.000000	-0.000136
436.000000	-0.000246
435.000000	-0.000450
434.000000	-0.000227
433.000000	-0.000037
432.000000	-0.000499
431.000000	-0.000982
430.000000	-0.000202
429.000000	0.000160
428.000000	0.000324
427.000000	0.000590
426.000000	0.000529
425.000000	0.000133
424.000000	-0.000232
423.000000	-0.000053
422.000000	-0.000054
421.000000	-0.000472
420.000000	-0.000095
419.000000	-0.000016
418.000000	-0.000503
417.000000	-0.000224
416.000000	0.000416
415.000000	0.000184
414.000000	0.000395
413.000000	0.000437
412.000000	-0.000273
411.000000	0.000435
410.000000	0.000265
409.000000	-0.000020
408.000000	0.000241
407.000000	0.000078
406.000000	0.000005
405.000000	-0.000464
404.000000	-0.000640
403.000000	-0.000368
402.000000	0.000003
401.000000	0.000300
400.000000	0.000497
399.000000	0.000304
398.000000	0.000083
397.000000	-0.000261
396.000000	0.000003
395.000000	0.000514
394.000000	0.000226
393.000000	-0.000274
392.000000	0.000552
391.000000	0.000247
390.000000	0.000037
389.000000	-0.000145
388.000000	-0.000344
387.000000	0.000322
386.000000	0.000557
385.000000	-0.000149
384.000000	-0.000177
383.000000	0.000697
382.000000	0.001201
381.000000	0.000224
380.000000	-0.000365
379.000000	0.000795
378.000000	0.002088
377.000000	0.000390
376.000000	0.001675
375.000000	0.001770
374.000000	0.000080
373.000000	0.000427
372.000000	0.000249
371.000000	-0.000156
370.000000	-0.001123
369.000000	-0.000436
368.000000	-0.000781
367.000000	-0.001042
366.000000	-0.000257
365.000000	-0.001845
364.000000	-0.000331
363.000000	0.001100
362.000000	0.001550
361.000000	-0.000287
360.000000	-0.000271
359.000000	-0.001186
358.000000	-0.000807
357.000000	-0.001061
356.000000	-0.000418
355.000000	0.002528
354.000000	0.002840
353.000000	0.001118
352.000000	0.001615
351.000000	-0.001185
350.000000	0.000973
349.000000	-0.000958
348.000000	-0.000164
347.000000	-0.000917
346.000000	-0.000780
345.000000	-0.000120
344.000000	0.000412
343.000000	-0.001572
342.000000	-0.004173
341.000000	-0.000301
340.000000	0.000257
339.000000	-0.001015
338.000000	0.003312
337.000000	0.001079
336.000000	0.000028
335.000000	0.001662
334.000000	-0.002060
333.000000	0.000615
332.000000	0.000990
331.000000	-0.001388
330.000000	-0.000423
329.000000	0.002022
328.000000	-0.000701
327.000000	-0.000160
326.000000	0.000080
325.000000	-0.001387
324.000000	0.003144
323.000000	0.000532
322.000000	-0.001220
321.000000	-0.001185
320.000000	0.003975
319.000000	0.001728
318.000000	0.000449
317.000000	-0.000785
316.000000	-0.000551
315.000000	0.001733
314.000000	0.001021
313.000000	0.001705
312.000000	-0.000502
311.000000	0.000784
310.000000	0.002503
309.000000	0.000642
308.000000	0.000841
307.000000	-0.001756
306.000000	-0.001167
305.000000	0.000589
304.000000	-0.000088
303.000000	0.000627
302.000000	0.000803
301.000000	-0.000125
300.000000	0.000494
