PE UV       SUBTECH     SPECTRUM    ASCII       PEDS        4.00        
   -1
PETIT_76.Sample.Raw.asc
20/12/16
10:56:26.00
20/12/16
10:56:26.00
CNRS
RCC2379_C_D2
300.000000
1
Lambda 850
850L1011221
PerkinElmer UV WinLab 6.0.3.0730 / 1.61.00 Lambda 800

0
0
2
0
0
UV/VIS
1
1
1
RBeamAtt,SBeamAtt,150mm sphere / downward view
0
0
0
0
Fix
 
0
0.2
0
0
0
 
 
 
0
 
0
319.2
0
Front
50
 
S:100 R:100
 
0
0
0
 
0
 
 
 
0
 
 
0
0
0
0
0
 
 
 
 
0
0


#HDR
-1
-1
#GR
nm
A
1.0
0.0
800.000000
-1.000000
501
8
0.193371
-0.014355
#DATA
800.000000	-0.011267
799.000000	-0.012982
798.000000	-0.013228
797.000000	-0.013491
796.000000	-0.012172
795.000000	-0.013733
794.000000	-0.014333
793.000000	-0.013846
792.000000	-0.012263
791.000000	-0.013012
790.000000	-0.013430
789.000000	-0.014314
788.000000	-0.013869
787.000000	-0.012579
786.000000	-0.013439
785.000000	-0.013622
784.000000	-0.012546
783.000000	-0.013378
782.000000	-0.013391
781.000000	-0.013581
780.000000	-0.012629
779.000000	-0.013216
778.000000	-0.013217
777.000000	-0.011306
776.000000	-0.011446
775.000000	-0.014281
774.000000	-0.014013
773.000000	-0.012787
772.000000	-0.012521
771.000000	-0.013956
770.000000	-0.013110
769.000000	-0.012624
768.000000	-0.013823
767.000000	-0.012822
766.000000	-0.013440
765.000000	-0.013869
764.000000	-0.012688
763.000000	-0.013315
762.000000	-0.012941
761.000000	-0.013296
760.000000	-0.012751
759.000000	-0.013313
758.000000	-0.013218
757.000000	-0.011578
756.000000	-0.012124
755.000000	-0.012930
754.000000	-0.013649
753.000000	-0.013534
752.000000	-0.013784
751.000000	-0.012705
750.000000	-0.013073
749.000000	-0.012323
748.000000	-0.013405
747.000000	-0.013096
746.000000	-0.012877
745.000000	-0.013046
744.000000	-0.013348
743.000000	-0.013472
742.000000	-0.012053
741.000000	-0.013168
740.000000	-0.012552
739.000000	-0.013654
738.000000	-0.013784
737.000000	-0.013143
736.000000	-0.013520
735.000000	-0.012926
734.000000	-0.013830
733.000000	-0.013773
732.000000	-0.013689
731.000000	-0.013169
730.000000	-0.013870
729.000000	-0.014355
728.000000	-0.013248
727.000000	-0.013885
726.000000	-0.013874
725.000000	-0.013193
724.000000	-0.013135
723.000000	-0.013555
722.000000	-0.013159
721.000000	-0.013082
720.000000	-0.013825
719.000000	-0.013608
718.000000	-0.013815
717.000000	-0.013776
716.000000	-0.013010
715.000000	-0.013124
714.000000	-0.012442
713.000000	-0.012400
712.000000	-0.012061
711.000000	-0.011611
710.000000	-0.011880
709.000000	-0.011098
708.000000	-0.010958
707.000000	-0.010784
706.000000	-0.008526
705.000000	-0.007993
704.000000	-0.007904
703.000000	-0.006209
702.000000	-0.004228
701.000000	-0.002346
700.000000	-0.000501
699.000000	0.000973
698.000000	0.003438
697.000000	0.005890
696.000000	0.009292
695.000000	0.013580
694.000000	0.017571
693.000000	0.021526
692.000000	0.026220
691.000000	0.031028
690.000000	0.035697
689.000000	0.041018
688.000000	0.046595
687.000000	0.051875
686.000000	0.056815
685.000000	0.062208
684.000000	0.066270
683.000000	0.069780
682.000000	0.073013
681.000000	0.074960
680.000000	0.076024
679.000000	0.076786
678.000000	0.076832
677.000000	0.076137
676.000000	0.075201
675.000000	0.073667
674.000000	0.071934
673.000000	0.070521
672.000000	0.068578
671.000000	0.066219
670.000000	0.063499
669.000000	0.060602
668.000000	0.057448
667.000000	0.054047
666.000000	0.050385
665.000000	0.046751
664.000000	0.043610
663.000000	0.039876
662.000000	0.036563
661.000000	0.033574
660.000000	0.030613
659.000000	0.028348
658.000000	0.025670
657.000000	0.023315
656.000000	0.021706
655.000000	0.020595
654.000000	0.019562
653.000000	0.018888
652.000000	0.018093
651.000000	0.017637
650.000000	0.017334
649.000000	0.017246
648.000000	0.017223
647.000000	0.016946
646.000000	0.017116
645.000000	0.017163
644.000000	0.017503
643.000000	0.018110
642.000000	0.018091
641.000000	0.018449
640.000000	0.018399
639.000000	0.018975
638.000000	0.019405
637.000000	0.019538
636.000000	0.019169
635.000000	0.019207
634.000000	0.019720
633.000000	0.020181
632.000000	0.020229
631.000000	0.019686
630.000000	0.019670
629.000000	0.019715
628.000000	0.019342
627.000000	0.019314
626.000000	0.018858
625.000000	0.018321
624.000000	0.018117
623.000000	0.017487
622.000000	0.017117
621.000000	0.017267
620.000000	0.016802
619.000000	0.016489
618.000000	0.015451
617.000000	0.015264
616.000000	0.014278
615.000000	0.013979
614.000000	0.013399
613.000000	0.012495
612.000000	0.012219
611.000000	0.011938
610.000000	0.011220
609.000000	0.009899
608.000000	0.009524
607.000000	0.009507
606.000000	0.009280
605.000000	0.008909
604.000000	0.008313
603.000000	0.008647
602.000000	0.008670
601.000000	0.008615
600.000000	0.008077
599.000000	0.008186
598.000000	0.008302
597.000000	0.007588
596.000000	0.007810
595.000000	0.008514
594.000000	0.008706
593.000000	0.008784
592.000000	0.008300
591.000000	0.008645
590.000000	0.009149
589.000000	0.009199
588.000000	0.008845
587.000000	0.009129
586.000000	0.009399
585.000000	0.009296
584.000000	0.010156
583.000000	0.010677
582.000000	0.011221
581.000000	0.011486
580.000000	0.012439
579.000000	0.013047
578.000000	0.013964
577.000000	0.015692
576.000000	0.016436
575.000000	0.017448
574.000000	0.019495
573.000000	0.020541
572.000000	0.022564
571.000000	0.024140
570.000000	0.024669
569.000000	0.025676
568.000000	0.026303
567.000000	0.027637
566.000000	0.027930
565.000000	0.028509
564.000000	0.028420
563.000000	0.029115
562.000000	0.029222
561.000000	0.030139
560.000000	0.030622
559.000000	0.031564
558.000000	0.031465
557.000000	0.032268
556.000000	0.032130
555.000000	0.032969
554.000000	0.033821
553.000000	0.034294
552.000000	0.034601
551.000000	0.035065
550.000000	0.035562
549.000000	0.036749
548.000000	0.036971
547.000000	0.037790
546.000000	0.038157
545.000000	0.038516
544.000000	0.039171
543.000000	0.039142
542.000000	0.039301
541.000000	0.039545
540.000000	0.039580
539.000000	0.039595
538.000000	0.040178
537.000000	0.040578
536.000000	0.040946
535.000000	0.041008
534.000000	0.040841
533.000000	0.041297
532.000000	0.041895
531.000000	0.042635
530.000000	0.042349
529.000000	0.043077
528.000000	0.044448
527.000000	0.045007
526.000000	0.046026
525.000000	0.047271
524.000000	0.047610
523.000000	0.049061
522.000000	0.050708
521.000000	0.052062
520.000000	0.054313
519.000000	0.056124
518.000000	0.058798
517.000000	0.060921
516.000000	0.063418
515.000000	0.066009
514.000000	0.068689
513.000000	0.071872
512.000000	0.074309
511.000000	0.077536
510.000000	0.081391
509.000000	0.085048
508.000000	0.088025
507.000000	0.092313
506.000000	0.095907
505.000000	0.099609
504.000000	0.104042
503.000000	0.107880
502.000000	0.112010
501.000000	0.115743
500.000000	0.119317
499.000000	0.121976
498.000000	0.124231
497.000000	0.126842
496.000000	0.128469
495.000000	0.130299
494.000000	0.131193
493.000000	0.131618
492.000000	0.132648
491.000000	0.132721
490.000000	0.132367
489.000000	0.131994
488.000000	0.132289
487.000000	0.131364
486.000000	0.130628
485.000000	0.130192
484.000000	0.130140
483.000000	0.129699
482.000000	0.129251
481.000000	0.128603
480.000000	0.128554
479.000000	0.128640
478.000000	0.129273
477.000000	0.129548
476.000000	0.130625
475.000000	0.131372
474.000000	0.132211
473.000000	0.133220
472.000000	0.134300
471.000000	0.135898
470.000000	0.137508
469.000000	0.138881
468.000000	0.140480
467.000000	0.141412
466.000000	0.142364
465.000000	0.143878
464.000000	0.145118
463.000000	0.145948
462.000000	0.146850
461.000000	0.147083
460.000000	0.147725
459.000000	0.148829
458.000000	0.149685
457.000000	0.150531
456.000000	0.151681
455.000000	0.153105
454.000000	0.154574
453.000000	0.156434
452.000000	0.158466
451.000000	0.161284
450.000000	0.164368
449.000000	0.167646
448.000000	0.171113
447.000000	0.174304
446.000000	0.177828
445.000000	0.180955
444.000000	0.183594
443.000000	0.186419
442.000000	0.188615
441.000000	0.190364
440.000000	0.191809
439.000000	0.192821
438.000000	0.193043
437.000000	0.193371
436.000000	0.192794
435.000000	0.191934
434.000000	0.191577
433.000000	0.190735
432.000000	0.189578
431.000000	0.187891
430.000000	0.186844
429.000000	0.185985
428.000000	0.184976
427.000000	0.184392
426.000000	0.183581
425.000000	0.182932
424.000000	0.182524
423.000000	0.181999
422.000000	0.181696
421.000000	0.181515
420.000000	0.182351
419.000000	0.182480
418.000000	0.181322
417.000000	0.180964
416.000000	0.180767
415.000000	0.180562
414.000000	0.180826
413.000000	0.180558
412.000000	0.179217
411.000000	0.178708
410.000000	0.178449
409.000000	0.177263
408.000000	0.176259
407.000000	0.175786
406.000000	0.174979
405.000000	0.174385
404.000000	0.174859
403.000000	0.174929
402.000000	0.174543
401.000000	0.175633
400.000000	0.176446
399.000000	0.176456
398.000000	0.176842
397.000000	0.178150
396.000000	0.179576
395.000000	0.180875
394.000000	0.180933
393.000000	0.181835
392.000000	0.183223
391.000000	0.182323
390.000000	0.182274
389.000000	0.182580
388.000000	0.181852
387.000000	0.181277
386.000000	0.181046
385.000000	0.179845
384.000000	0.178264
383.000000	0.177005
382.000000	0.175589
381.000000	0.173204
380.000000	0.170828
379.000000	0.169609
378.000000	0.162720
377.000000	0.157226
376.000000	0.156922
375.000000	0.153929
374.000000	0.150431
373.000000	0.148814
372.000000	0.147722
371.000000	0.145619
370.000000	0.141336
369.000000	0.139224
368.000000	0.138316
367.000000	0.136503
366.000000	0.134117
365.000000	0.133131
364.000000	0.133628
363.000000	0.132038
362.000000	0.132305
361.000000	0.129765
360.000000	0.128941
359.000000	0.126424
358.000000	0.126457
357.000000	0.127062
356.000000	0.126568
355.000000	0.127730
354.000000	0.127276
353.000000	0.126956
352.000000	0.127497
351.000000	0.126681
350.000000	0.127058
349.000000	0.127968
348.000000	0.126235
347.000000	0.127496
346.000000	0.129154
345.000000	0.128985
344.000000	0.129318
343.000000	0.130084
342.000000	0.130987
341.000000	0.134002
340.000000	0.132880
339.000000	0.132261
338.000000	0.133831
337.000000	0.133044
336.000000	0.130295
335.000000	0.131917
334.000000	0.131334
333.000000	0.135728
332.000000	0.137441
331.000000	0.135356
330.000000	0.135117
329.000000	0.133828
328.000000	0.134821
327.000000	0.135139
326.000000	0.134877
325.000000	0.132153
324.000000	0.138299
323.000000	0.136845
322.000000	0.132522
321.000000	0.139246
320.000000	0.140209
319.000000	0.139847
318.000000	0.135821
317.000000	0.136151
316.000000	0.139542
315.000000	0.138442
314.000000	0.140782
313.000000	0.143742
312.000000	0.142455
311.000000	0.145993
310.000000	0.147257
309.000000	0.151100
308.000000	0.150927
307.000000	0.154538
306.000000	0.158909
305.000000	0.158997
304.000000	0.163404
303.000000	0.168440
302.000000	0.172103
301.000000	0.173824
300.000000	0.178506
