PE UV       SUBTECH     SPECTRUM    ASCII       PEDS        4.00        
   -1
PETIT_88.Sample.Raw.asc
20/12/16
12:03:52.00
20/12/16
12:03:52.00
CNRS
RCC2374_C_D2
300.000000
1
Lambda 850
850L1011221
PerkinElmer UV WinLab 6.0.3.0730 / 1.61.00 Lambda 800

0
0
2
0
0
UV/VIS
1
1
1
RBeamAtt,SBeamAtt,150mm sphere / downward view
0
0
0
0
Fix
 
0
0.2
0
0
0
 
 
 
0
 
0
319.2
0
Front
50
 
S:100 R:100
 
0
0
0
 
0
 
 
 
0
 
 
0
0
0
0
0
 
 
 
 
0
0


#HDR
-1
-1
#GR
nm
A
1.0
0.0
800.000000
-1.000000
501
8
0.197622
-0.014801
#DATA
800.000000	-0.012920
799.000000	-0.012856
798.000000	-0.014000
797.000000	-0.013787
796.000000	-0.011491
795.000000	-0.014130
794.000000	-0.012254
793.000000	-0.013883
792.000000	-0.013669
791.000000	-0.013562
790.000000	-0.013305
789.000000	-0.014130
788.000000	-0.013224
787.000000	-0.012771
786.000000	-0.013549
785.000000	-0.013677
784.000000	-0.013745
783.000000	-0.013493
782.000000	-0.013888
781.000000	-0.013481
780.000000	-0.012762
779.000000	-0.012948
778.000000	-0.014161
777.000000	-0.012770
776.000000	-0.012996
775.000000	-0.012531
774.000000	-0.013246
773.000000	-0.012984
772.000000	-0.013365
771.000000	-0.013173
770.000000	-0.013131
769.000000	-0.013004
768.000000	-0.013722
767.000000	-0.013136
766.000000	-0.012830
765.000000	-0.014141
764.000000	-0.012512
763.000000	-0.013197
762.000000	-0.012928
761.000000	-0.013658
760.000000	-0.013490
759.000000	-0.013263
758.000000	-0.013655
757.000000	-0.012879
756.000000	-0.012135
755.000000	-0.013899
754.000000	-0.013906
753.000000	-0.013196
752.000000	-0.013857
751.000000	-0.012965
750.000000	-0.012958
749.000000	-0.012790
748.000000	-0.013313
747.000000	-0.013349
746.000000	-0.013466
745.000000	-0.014116
744.000000	-0.013603
743.000000	-0.013605
742.000000	-0.012803
741.000000	-0.012346
740.000000	-0.012853
739.000000	-0.013980
738.000000	-0.013004
737.000000	-0.013183
736.000000	-0.013462
735.000000	-0.013252
734.000000	-0.014535
733.000000	-0.013963
732.000000	-0.012688
731.000000	-0.012583
730.000000	-0.013762
729.000000	-0.014801
728.000000	-0.013759
727.000000	-0.014092
726.000000	-0.013861
725.000000	-0.013151
724.000000	-0.013331
723.000000	-0.013873
722.000000	-0.013798
721.000000	-0.013796
720.000000	-0.014352
719.000000	-0.013898
718.000000	-0.013375
717.000000	-0.013371
716.000000	-0.013304
715.000000	-0.013120
714.000000	-0.012441
713.000000	-0.012171
712.000000	-0.011660
711.000000	-0.011591
710.000000	-0.011428
709.000000	-0.010700
708.000000	-0.010419
707.000000	-0.009146
706.000000	-0.007469
705.000000	-0.006869
704.000000	-0.006065
703.000000	-0.004204
702.000000	-0.002402
701.000000	-0.000154
700.000000	0.002310
699.000000	0.004526
698.000000	0.007279
697.000000	0.010333
696.000000	0.014257
695.000000	0.019108
694.000000	0.023967
693.000000	0.028964
692.000000	0.035311
691.000000	0.041977
690.000000	0.048199
689.000000	0.054235
688.000000	0.060908
687.000000	0.067934
686.000000	0.074050
685.000000	0.080549
684.000000	0.085976
683.000000	0.090520
682.000000	0.094683
681.000000	0.097051
680.000000	0.098808
679.000000	0.099871
678.000000	0.099565
677.000000	0.098871
676.000000	0.098437
675.000000	0.097167
674.000000	0.095282
673.000000	0.092924
672.000000	0.090207
671.000000	0.087532
670.000000	0.084120
669.000000	0.080064
668.000000	0.075407
667.000000	0.071348
666.000000	0.067196
665.000000	0.062114
664.000000	0.057084
663.000000	0.052390
662.000000	0.047587
661.000000	0.043599
660.000000	0.039624
659.000000	0.036046
658.000000	0.032713
657.000000	0.029519
656.000000	0.027700
655.000000	0.026236
654.000000	0.024317
653.000000	0.023200
652.000000	0.022353
651.000000	0.021262
650.000000	0.021128
649.000000	0.020925
648.000000	0.020574
647.000000	0.020560
646.000000	0.020756
645.000000	0.021105
644.000000	0.022028
643.000000	0.022043
642.000000	0.022159
641.000000	0.022917
640.000000	0.023292
639.000000	0.023492
638.000000	0.024191
637.000000	0.024851
636.000000	0.024944
635.000000	0.024815
634.000000	0.025104
633.000000	0.025737
632.000000	0.026064
631.000000	0.025496
630.000000	0.025298
629.000000	0.025470
628.000000	0.025417
627.000000	0.025258
626.000000	0.024767
625.000000	0.023810
624.000000	0.023856
623.000000	0.023389
622.000000	0.023053
621.000000	0.023373
620.000000	0.022700
619.000000	0.021969
618.000000	0.020866
617.000000	0.020494
616.000000	0.019775
615.000000	0.019326
614.000000	0.018601
613.000000	0.017764
612.000000	0.016744
611.000000	0.016120
610.000000	0.015831
609.000000	0.014776
608.000000	0.013959
607.000000	0.012915
606.000000	0.013049
605.000000	0.012454
604.000000	0.011812
603.000000	0.011694
602.000000	0.011623
601.000000	0.011774
600.000000	0.011369
599.000000	0.011588
598.000000	0.011406
597.000000	0.010822
596.000000	0.011085
595.000000	0.011116
594.000000	0.011404
593.000000	0.011460
592.000000	0.011111
591.000000	0.011373
590.000000	0.011668
589.000000	0.011889
588.000000	0.011321
587.000000	0.011324
586.000000	0.011992
585.000000	0.012572
584.000000	0.012209
583.000000	0.012729
582.000000	0.013410
581.000000	0.013529
580.000000	0.014019
579.000000	0.014897
578.000000	0.015788
577.000000	0.016839
576.000000	0.017630
575.000000	0.018919
574.000000	0.020189
573.000000	0.021891
572.000000	0.023486
571.000000	0.024677
570.000000	0.026389
569.000000	0.027813
568.000000	0.029934
567.000000	0.032017
566.000000	0.033894
565.000000	0.035535
564.000000	0.037377
563.000000	0.039747
562.000000	0.042570
561.000000	0.045627
560.000000	0.048534
559.000000	0.051757
558.000000	0.054665
557.000000	0.057782
556.000000	0.060441
555.000000	0.063265
554.000000	0.066408
553.000000	0.068454
552.000000	0.071085
551.000000	0.072938
550.000000	0.074288
549.000000	0.075972
548.000000	0.077140
547.000000	0.077815
546.000000	0.078217
545.000000	0.078046
544.000000	0.078954
543.000000	0.078019
542.000000	0.077708
541.000000	0.077363
540.000000	0.077268
539.000000	0.076230
538.000000	0.076072
537.000000	0.075703
536.000000	0.075189
535.000000	0.074794
534.000000	0.073989
533.000000	0.073156
532.000000	0.072955
531.000000	0.072197
530.000000	0.071763
529.000000	0.071416
528.000000	0.071616
527.000000	0.071285
526.000000	0.071197
525.000000	0.071089
524.000000	0.071673
523.000000	0.072499
522.000000	0.072821
521.000000	0.073681
520.000000	0.074836
519.000000	0.076507
518.000000	0.077916
517.000000	0.079847
516.000000	0.081546
515.000000	0.083542
514.000000	0.086403
513.000000	0.088751
512.000000	0.091449
511.000000	0.093965
510.000000	0.097259
509.000000	0.099913
508.000000	0.103819
507.000000	0.107287
506.000000	0.110743
505.000000	0.113799
504.000000	0.117933
503.000000	0.120800
502.000000	0.124329
501.000000	0.127325
500.000000	0.129921
499.000000	0.131617
498.000000	0.133285
497.000000	0.134407
496.000000	0.135177
495.000000	0.136784
494.000000	0.136437
493.000000	0.136051
492.000000	0.136261
491.000000	0.135484
490.000000	0.134829
489.000000	0.133716
488.000000	0.132644
487.000000	0.131985
486.000000	0.130908
485.000000	0.129741
484.000000	0.129089
483.000000	0.128416
482.000000	0.127213
481.000000	0.126461
480.000000	0.126432
479.000000	0.126365
478.000000	0.126546
477.000000	0.127003
476.000000	0.127808
475.000000	0.128218
474.000000	0.129000
473.000000	0.129800
472.000000	0.130543
471.000000	0.131813
470.000000	0.133488
469.000000	0.134217
468.000000	0.135289
467.000000	0.135924
466.000000	0.136300
465.000000	0.137344
464.000000	0.138104
463.000000	0.138983
462.000000	0.139094
461.000000	0.138813
460.000000	0.139637
459.000000	0.140671
458.000000	0.141762
457.000000	0.142729
456.000000	0.143861
455.000000	0.145785
454.000000	0.147692
453.000000	0.150600
452.000000	0.153652
451.000000	0.157346
450.000000	0.161118
449.000000	0.165479
448.000000	0.170745
447.000000	0.175595
446.000000	0.179536
445.000000	0.182891
444.000000	0.187085
443.000000	0.190703
442.000000	0.193052
441.000000	0.195099
440.000000	0.196556
439.000000	0.197622
438.000000	0.197530
437.000000	0.197412
436.000000	0.196960
435.000000	0.195513
434.000000	0.194628
433.000000	0.192868
432.000000	0.190932
431.000000	0.189215
430.000000	0.187346
429.000000	0.186031
428.000000	0.184384
427.000000	0.183241
426.000000	0.182383
425.000000	0.181085
424.000000	0.180545
423.000000	0.180110
422.000000	0.179828
421.000000	0.179205
420.000000	0.178634
419.000000	0.178237
418.000000	0.177550
417.000000	0.177456
416.000000	0.177253
415.000000	0.176552
414.000000	0.175413
413.000000	0.173847
412.000000	0.172709
411.000000	0.171635
410.000000	0.169605
409.000000	0.168509
408.000000	0.167146
407.000000	0.164798
406.000000	0.163358
405.000000	0.162303
404.000000	0.160865
403.000000	0.159773
402.000000	0.159622
401.000000	0.159900
400.000000	0.160003
399.000000	0.159757
398.000000	0.159461
397.000000	0.159214
396.000000	0.160284
395.000000	0.161557
394.000000	0.161958
393.000000	0.162339
392.000000	0.164063
391.000000	0.164747
390.000000	0.164782
389.000000	0.165645
388.000000	0.165823
387.000000	0.165413
386.000000	0.165833
385.000000	0.165855
384.000000	0.165493
383.000000	0.166148
382.000000	0.165889
381.000000	0.164108
380.000000	0.161094
379.000000	0.160284
378.000000	0.156625
377.000000	0.150401
376.000000	0.147856
375.000000	0.144717
374.000000	0.141833
373.000000	0.139565
372.000000	0.136778
371.000000	0.133238
370.000000	0.129690
369.000000	0.126936
368.000000	0.123324
367.000000	0.120273
366.000000	0.118794
365.000000	0.117319
364.000000	0.116158
363.000000	0.115917
362.000000	0.114173
361.000000	0.111108
360.000000	0.109590
359.000000	0.106952
358.000000	0.106496
357.000000	0.105587
356.000000	0.102664
355.000000	0.105173
354.000000	0.104003
353.000000	0.101003
352.000000	0.103775
351.000000	0.100880
350.000000	0.101316
349.000000	0.100866
348.000000	0.102246
347.000000	0.102185
346.000000	0.103849
345.000000	0.102259
344.000000	0.102628
343.000000	0.102413
342.000000	0.102765
341.000000	0.106533
340.000000	0.106052
339.000000	0.104321
338.000000	0.107299
337.000000	0.104879
336.000000	0.102730
335.000000	0.105215
334.000000	0.102657
333.000000	0.102634
332.000000	0.103498
331.000000	0.102860
330.000000	0.099233
329.000000	0.100397
328.000000	0.100303
327.000000	0.106694
326.000000	0.102579
325.000000	0.099787
324.000000	0.105100
323.000000	0.106323
322.000000	0.101597
321.000000	0.102037
320.000000	0.105943
319.000000	0.108016
318.000000	0.105694
317.000000	0.104688
316.000000	0.105807
315.000000	0.106992
314.000000	0.108851
313.000000	0.110385
312.000000	0.111467
311.000000	0.115232
310.000000	0.117717
309.000000	0.121093
308.000000	0.121563
307.000000	0.121794
306.000000	0.128112
305.000000	0.129312
304.000000	0.135161
303.000000	0.139624
302.000000	0.142213
301.000000	0.147020
300.000000	0.151729
