PE UV       SUBTECH     SPECTRUM    ASCII       PEDS        4.00        
   -1
PETIT_67.Sample.Raw.asc
20/12/16
09:54:33.00
20/12/16
09:54:33.00
CNRS
RCC0076_B_D2
300.000000
1
Lambda 850
850L1011221
PerkinElmer UV WinLab 6.0.3.0730 / 1.61.00 Lambda 800

0
0
2
0
0
UV/VIS
1
1
1
RBeamAtt,SBeamAtt,150mm sphere / downward view
0
0
0
0
Fix
 
0
0.2
0
0
0
 
 
 
0
 
0
319.2
0
Front
50
 
S:100 R:100
 
0
0
0
 
0
 
 
 
0
 
 
0
0
0
0
0
 
 
 
 
0
0


#HDR
-1
-1
#GR
nm
A
1.0
0.0
800.000000
-1.000000
501
8
0.338963
-0.009607
#DATA
800.000000	-0.008278
799.000000	-0.009607
798.000000	-0.008029
797.000000	-0.007585
796.000000	-0.006412
795.000000	-0.008475
794.000000	-0.008704
793.000000	-0.009563
792.000000	-0.007868
791.000000	-0.008244
790.000000	-0.008541
789.000000	-0.008418
788.000000	-0.008535
787.000000	-0.006422
786.000000	-0.008682
785.000000	-0.008653
784.000000	-0.008027
783.000000	-0.008412
782.000000	-0.008371
781.000000	-0.009034
780.000000	-0.007890
779.000000	-0.007822
778.000000	-0.007246
777.000000	-0.006798
776.000000	-0.007590
775.000000	-0.007529
774.000000	-0.008333
773.000000	-0.008176
772.000000	-0.008216
771.000000	-0.007459
770.000000	-0.007989
769.000000	-0.007756
768.000000	-0.008798
767.000000	-0.007837
766.000000	-0.008426
765.000000	-0.008465
764.000000	-0.007343
763.000000	-0.008141
762.000000	-0.007588
761.000000	-0.007585
760.000000	-0.008433
759.000000	-0.007514
758.000000	-0.006597
757.000000	-0.006177
756.000000	-0.007533
755.000000	-0.008122
754.000000	-0.006824
753.000000	-0.007208
752.000000	-0.008040
751.000000	-0.007419
750.000000	-0.007379
749.000000	-0.007053
748.000000	-0.007686
747.000000	-0.007483
746.000000	-0.007641
745.000000	-0.007838
744.000000	-0.007171
743.000000	-0.007122
742.000000	-0.006155
741.000000	-0.006687
740.000000	-0.006971
739.000000	-0.006993
738.000000	-0.007167
737.000000	-0.007052
736.000000	-0.007445
735.000000	-0.007245
734.000000	-0.008407
733.000000	-0.008300
732.000000	-0.007354
731.000000	-0.005958
730.000000	-0.007335
729.000000	-0.008379
728.000000	-0.007665
727.000000	-0.006942
726.000000	-0.006911
725.000000	-0.006730
724.000000	-0.006406
723.000000	-0.006308
722.000000	-0.006259
721.000000	-0.006504
720.000000	-0.006386
719.000000	-0.006315
718.000000	-0.006059
717.000000	-0.005378
716.000000	-0.004738
715.000000	-0.004757
714.000000	-0.004182
713.000000	-0.003626
712.000000	-0.003229
711.000000	-0.003049
710.000000	-0.002780
709.000000	-0.001469
708.000000	-0.001618
707.000000	-0.000916
706.000000	0.000713
705.000000	0.001770
704.000000	0.002877
703.000000	0.004292
702.000000	0.006472
701.000000	0.007918
700.000000	0.009947
699.000000	0.012093
698.000000	0.014447
697.000000	0.017109
696.000000	0.020439
695.000000	0.024961
694.000000	0.029132
693.000000	0.033129
692.000000	0.038445
691.000000	0.043115
690.000000	0.047405
689.000000	0.051894
688.000000	0.056287
687.000000	0.061056
686.000000	0.064263
685.000000	0.067604
684.000000	0.070867
683.000000	0.073053
682.000000	0.074742
681.000000	0.076376
680.000000	0.077635
679.000000	0.078648
678.000000	0.079865
677.000000	0.081319
676.000000	0.082717
675.000000	0.083214
674.000000	0.083303
673.000000	0.083143
672.000000	0.082611
671.000000	0.081589
670.000000	0.080201
669.000000	0.078152
668.000000	0.075703
667.000000	0.073875
666.000000	0.071732
665.000000	0.069006
664.000000	0.065837
663.000000	0.062583
662.000000	0.059360
661.000000	0.056233
660.000000	0.052820
659.000000	0.049371
658.000000	0.046472
657.000000	0.043224
656.000000	0.040586
655.000000	0.038724
654.000000	0.036637
653.000000	0.034963
652.000000	0.033488
651.000000	0.032296
650.000000	0.031228
649.000000	0.030635
648.000000	0.030193
647.000000	0.030051
646.000000	0.030060
645.000000	0.030177
644.000000	0.030456
643.000000	0.030953
642.000000	0.031340
641.000000	0.031892
640.000000	0.032638
639.000000	0.033097
638.000000	0.033391
637.000000	0.034055
636.000000	0.034333
635.000000	0.034710
634.000000	0.035046
633.000000	0.035696
632.000000	0.035622
631.000000	0.035052
630.000000	0.035207
629.000000	0.035419
628.000000	0.035110
627.000000	0.034436
626.000000	0.034555
625.000000	0.034213
624.000000	0.034310
623.000000	0.034038
622.000000	0.033695
621.000000	0.034308
620.000000	0.033835
619.000000	0.033672
618.000000	0.033188
617.000000	0.032958
616.000000	0.032163
615.000000	0.031541
614.000000	0.030978
613.000000	0.030482
612.000000	0.029913
611.000000	0.029495
610.000000	0.028731
609.000000	0.027471
608.000000	0.026985
607.000000	0.026430
606.000000	0.026132
605.000000	0.025942
604.000000	0.025442
603.000000	0.025398
602.000000	0.025302
601.000000	0.025321
600.000000	0.025338
599.000000	0.025456
598.000000	0.025254
597.000000	0.024887
596.000000	0.025755
595.000000	0.026315
594.000000	0.026465
593.000000	0.027055
592.000000	0.026890
591.000000	0.027322
590.000000	0.027588
589.000000	0.027535
588.000000	0.027756
587.000000	0.027801
586.000000	0.028562
585.000000	0.028434
584.000000	0.028436
583.000000	0.028537
582.000000	0.028820
581.000000	0.028751
580.000000	0.028712
579.000000	0.028875
578.000000	0.028805
577.000000	0.029423
576.000000	0.028771
575.000000	0.029124
574.000000	0.029180
573.000000	0.029748
572.000000	0.029837
571.000000	0.029830
570.000000	0.030035
569.000000	0.030531
568.000000	0.030809
567.000000	0.031680
566.000000	0.031929
565.000000	0.032259
564.000000	0.032876
563.000000	0.033221
562.000000	0.034186
561.000000	0.035385
560.000000	0.036439
559.000000	0.037208
558.000000	0.037804
557.000000	0.039292
556.000000	0.039553
555.000000	0.041032
554.000000	0.042026
553.000000	0.042727
552.000000	0.043253
551.000000	0.044607
550.000000	0.045559
549.000000	0.046489
548.000000	0.047793
547.000000	0.048539
546.000000	0.049269
545.000000	0.050233
544.000000	0.051519
543.000000	0.052100
542.000000	0.052994
541.000000	0.053215
540.000000	0.054285
539.000000	0.055211
538.000000	0.055775
537.000000	0.057074
536.000000	0.057431
535.000000	0.058436
534.000000	0.058578
533.000000	0.059640
532.000000	0.060822
531.000000	0.061304
530.000000	0.061550
529.000000	0.062406
528.000000	0.063452
527.000000	0.064044
526.000000	0.064694
525.000000	0.065531
524.000000	0.065753
523.000000	0.066825
522.000000	0.067280
521.000000	0.068466
520.000000	0.069054
519.000000	0.069954
518.000000	0.071071
517.000000	0.072124
516.000000	0.072995
515.000000	0.073838
514.000000	0.075325
513.000000	0.076666
512.000000	0.077303
511.000000	0.078719
510.000000	0.079824
509.000000	0.081383
508.000000	0.082207
507.000000	0.083785
506.000000	0.085162
505.000000	0.086348
504.000000	0.088364
503.000000	0.089696
502.000000	0.090955
501.000000	0.092584
500.000000	0.093859
499.000000	0.095183
498.000000	0.096263
497.000000	0.097809
496.000000	0.098206
495.000000	0.099934
494.000000	0.100932
493.000000	0.102078
492.000000	0.102822
491.000000	0.103753
490.000000	0.104291
489.000000	0.104311
488.000000	0.105623
487.000000	0.106151
486.000000	0.106405
485.000000	0.107017
484.000000	0.108028
483.000000	0.107877
482.000000	0.107856
481.000000	0.107551
480.000000	0.108606
479.000000	0.109043
478.000000	0.109622
477.000000	0.110396
476.000000	0.111408
475.000000	0.112580
474.000000	0.113417
473.000000	0.114506
472.000000	0.115841
471.000000	0.116921
470.000000	0.118234
469.000000	0.119744
468.000000	0.121137
467.000000	0.122011
466.000000	0.122971
465.000000	0.124966
464.000000	0.126661
463.000000	0.127702
462.000000	0.128275
461.000000	0.128690
460.000000	0.130246
459.000000	0.131214
458.000000	0.131860
457.000000	0.132978
456.000000	0.134391
455.000000	0.135684
454.000000	0.136282
453.000000	0.137511
452.000000	0.138841
451.000000	0.139908
450.000000	0.141215
449.000000	0.142797
448.000000	0.144947
447.000000	0.145932
446.000000	0.147229
445.000000	0.149125
444.000000	0.151085
443.000000	0.152199
442.000000	0.153140
441.000000	0.154183
440.000000	0.155119
439.000000	0.156660
438.000000	0.157471
437.000000	0.158046
436.000000	0.159144
435.000000	0.159388
434.000000	0.159848
433.000000	0.160929
432.000000	0.161414
431.000000	0.161776
430.000000	0.162699
429.000000	0.163325
428.000000	0.164111
427.000000	0.165214
426.000000	0.166097
425.000000	0.166832
424.000000	0.167578
423.000000	0.168630
422.000000	0.169799
421.000000	0.170737
420.000000	0.172146
419.000000	0.173728
418.000000	0.174668
417.000000	0.175428
416.000000	0.176926
415.000000	0.178112
414.000000	0.179045
413.000000	0.180127
412.000000	0.180608
411.000000	0.181404
410.000000	0.182198
409.000000	0.182923
408.000000	0.183627
407.000000	0.184545
406.000000	0.185237
405.000000	0.185216
404.000000	0.185652
403.000000	0.187049
402.000000	0.188684
401.000000	0.189518
400.000000	0.191075
399.000000	0.192132
398.000000	0.192716
397.000000	0.193767
396.000000	0.195379
395.000000	0.197022
394.000000	0.197701
393.000000	0.198822
392.000000	0.201699
391.000000	0.202966
390.000000	0.204045
389.000000	0.205097
388.000000	0.206741
387.000000	0.209591
386.000000	0.211326
385.000000	0.213087
384.000000	0.214065
383.000000	0.216030
382.000000	0.218325
381.000000	0.218842
380.000000	0.220354
379.000000	0.223763
378.000000	0.222833
377.000000	0.220037
376.000000	0.221687
375.000000	0.222913
374.000000	0.222633
373.000000	0.226705
372.000000	0.227798
371.000000	0.228919
370.000000	0.230543
369.000000	0.233927
368.000000	0.236907
367.000000	0.237676
366.000000	0.241204
365.000000	0.241133
364.000000	0.243804
363.000000	0.247522
362.000000	0.250061
361.000000	0.249911
360.000000	0.252908
359.000000	0.254436
358.000000	0.257288
357.000000	0.257319
356.000000	0.259400
355.000000	0.264857
354.000000	0.265283
353.000000	0.265469
352.000000	0.270515
351.000000	0.268965
350.000000	0.270391
349.000000	0.273665
348.000000	0.276263
347.000000	0.275735
346.000000	0.279492
345.000000	0.283376
344.000000	0.284361
343.000000	0.283600
342.000000	0.286659
341.000000	0.289237
340.000000	0.290845
339.000000	0.291309
338.000000	0.293592
337.000000	0.294872
336.000000	0.297187
335.000000	0.298098
334.000000	0.298549
333.000000	0.301595
332.000000	0.302535
331.000000	0.300608
330.000000	0.301060
329.000000	0.303422
328.000000	0.305148
327.000000	0.311096
326.000000	0.309629
325.000000	0.306550
324.000000	0.315793
323.000000	0.316714
322.000000	0.317082
321.000000	0.312551
320.000000	0.320197
319.000000	0.319637
318.000000	0.309534
317.000000	0.308857
316.000000	0.309271
315.000000	0.310774
314.000000	0.314058
313.000000	0.315722
312.000000	0.314668
311.000000	0.318202
310.000000	0.319442
309.000000	0.322007
308.000000	0.321179
307.000000	0.322980
306.000000	0.326631
305.000000	0.327058
304.000000	0.330644
303.000000	0.333773
302.000000	0.333359
301.000000	0.336194
300.000000	0.338963
