PE UV       SUBTECH     SPECTRUM    ASCII       PEDS        4.00        
   -1
PETIT_73.Sample.Raw.asc
20/12/16
10:15:50.00
20/12/16
10:15:50.00
CNRS
Blanc03
300.000000
1
Lambda 850
850L1011221
PerkinElmer UV WinLab 6.0.3.0730 / 1.61.00 Lambda 800

0
0
2
0
0
UV/VIS
1
1
1
RBeamAtt,SBeamAtt,150mm sphere / downward view
0
0
0
0
Fix
 
0
0.2
0
0
0
 
 
 
0
 
0
319.2
0
Front
50
 
S:100 R:100
 
0
0
0
 
0
 
 
 
0
 
 
0
0
0
0
0
 
 
 
 
0
0


#HDR
-1
-1
#GR
nm
A
1.0
0.0
800.000000
-1.000000
501
8
0.009889
-0.022715
#DATA
800.000000	-0.014387
799.000000	-0.013775
798.000000	-0.015001
797.000000	-0.013532
796.000000	-0.012087
795.000000	-0.014263
794.000000	-0.013073
793.000000	-0.013666
792.000000	-0.013242
791.000000	-0.013930
790.000000	-0.013446
789.000000	-0.014743
788.000000	-0.013721
787.000000	-0.012687
786.000000	-0.012816
785.000000	-0.014149
784.000000	-0.014058
783.000000	-0.014133
782.000000	-0.014345
781.000000	-0.013476
780.000000	-0.013593
779.000000	-0.013803
778.000000	-0.013948
777.000000	-0.012500
776.000000	-0.013178
775.000000	-0.013136
774.000000	-0.013362
773.000000	-0.012854
772.000000	-0.013958
771.000000	-0.013368
770.000000	-0.013845
769.000000	-0.012665
768.000000	-0.013887
767.000000	-0.013388
766.000000	-0.013461
765.000000	-0.014404
764.000000	-0.013273
763.000000	-0.013069
762.000000	-0.013826
761.000000	-0.013592
760.000000	-0.013693
759.000000	-0.013509
758.000000	-0.013563
757.000000	-0.012755
756.000000	-0.013239
755.000000	-0.013834
754.000000	-0.013490
753.000000	-0.013101
752.000000	-0.013956
751.000000	-0.013906
750.000000	-0.013643
749.000000	-0.013151
748.000000	-0.013896
747.000000	-0.013399
746.000000	-0.013107
745.000000	-0.013915
744.000000	-0.013586
743.000000	-0.013401
742.000000	-0.012641
741.000000	-0.013200
740.000000	-0.013483
739.000000	-0.013443
738.000000	-0.014050
737.000000	-0.014521
736.000000	-0.015007
735.000000	-0.013769
734.000000	-0.014441
733.000000	-0.014942
732.000000	-0.014862
731.000000	-0.013939
730.000000	-0.013945
729.000000	-0.014384
728.000000	-0.013931
727.000000	-0.014095
726.000000	-0.014395
725.000000	-0.014275
724.000000	-0.013800
723.000000	-0.013875
722.000000	-0.014318
721.000000	-0.014853
720.000000	-0.014902
719.000000	-0.014305
718.000000	-0.014369
717.000000	-0.014663
716.000000	-0.014806
715.000000	-0.014617
714.000000	-0.014492
713.000000	-0.014550
712.000000	-0.014194
711.000000	-0.014065
710.000000	-0.014663
709.000000	-0.014210
708.000000	-0.014840
707.000000	-0.014885
706.000000	-0.014438
705.000000	-0.014701
704.000000	-0.014756
703.000000	-0.014442
702.000000	-0.014195
701.000000	-0.013921
700.000000	-0.014192
699.000000	-0.014976
698.000000	-0.015282
697.000000	-0.015139
696.000000	-0.014982
695.000000	-0.014720
694.000000	-0.014891
693.000000	-0.015370
692.000000	-0.014907
691.000000	-0.014866
690.000000	-0.014576
689.000000	-0.014722
688.000000	-0.014737
687.000000	-0.014571
686.000000	-0.015229
685.000000	-0.014842
684.000000	-0.014501
683.000000	-0.014429
682.000000	-0.014211
681.000000	-0.014385
680.000000	-0.015028
679.000000	-0.015306
678.000000	-0.015068
677.000000	-0.014912
676.000000	-0.014432
675.000000	-0.013931
674.000000	-0.014125
673.000000	-0.014097
672.000000	-0.014280
671.000000	-0.014469
670.000000	-0.014771
669.000000	-0.014815
668.000000	-0.014670
667.000000	-0.014575
666.000000	-0.014495
665.000000	-0.014342
664.000000	-0.014447
663.000000	-0.014620
662.000000	-0.014656
661.000000	-0.014424
660.000000	-0.014388
659.000000	-0.014538
658.000000	-0.014887
657.000000	-0.015155
656.000000	-0.015223
655.000000	-0.014665
654.000000	-0.014512
653.000000	-0.014968
652.000000	-0.015215
651.000000	-0.015040
650.000000	-0.015011
649.000000	-0.014962
648.000000	-0.015042
647.000000	-0.015485
646.000000	-0.015299
645.000000	-0.015142
644.000000	-0.015179
643.000000	-0.014992
642.000000	-0.015324
641.000000	-0.014945
640.000000	-0.014644
639.000000	-0.014759
638.000000	-0.014937
637.000000	-0.015213
636.000000	-0.015439
635.000000	-0.014971
634.000000	-0.014618
633.000000	-0.014377
632.000000	-0.014434
631.000000	-0.015038
630.000000	-0.014916
629.000000	-0.014636
628.000000	-0.014964
627.000000	-0.015008
626.000000	-0.015079
625.000000	-0.015337
624.000000	-0.015183
623.000000	-0.015419
622.000000	-0.015547
621.000000	-0.014770
620.000000	-0.014626
619.000000	-0.014601
618.000000	-0.015094
617.000000	-0.014689
616.000000	-0.014546
615.000000	-0.015182
614.000000	-0.015307
613.000000	-0.015075
612.000000	-0.015194
611.000000	-0.015243
610.000000	-0.014787
609.000000	-0.015128
608.000000	-0.015161
607.000000	-0.015233
606.000000	-0.015041
605.000000	-0.015303
604.000000	-0.015401
603.000000	-0.014876
602.000000	-0.015123
601.000000	-0.014898
600.000000	-0.015228
599.000000	-0.015086
598.000000	-0.015177
597.000000	-0.015734
596.000000	-0.015244
595.000000	-0.015555
594.000000	-0.014936
593.000000	-0.014540
592.000000	-0.014819
591.000000	-0.015335
590.000000	-0.015100
589.000000	-0.014721
588.000000	-0.015500
587.000000	-0.015603
586.000000	-0.015265
585.000000	-0.015410
584.000000	-0.015717
583.000000	-0.015788
582.000000	-0.015337
581.000000	-0.015531
580.000000	-0.015014
579.000000	-0.015640
578.000000	-0.015168
577.000000	-0.014213
576.000000	-0.015268
575.000000	-0.015367
574.000000	-0.015256
573.000000	-0.015089
572.000000	-0.015196
571.000000	-0.014960
570.000000	-0.015290
569.000000	-0.015097
568.000000	-0.015213
567.000000	-0.014979
566.000000	-0.014917
565.000000	-0.015085
564.000000	-0.015036
563.000000	-0.014660
562.000000	-0.015141
561.000000	-0.014996
560.000000	-0.014738
559.000000	-0.014855
558.000000	-0.014953
557.000000	-0.014625
556.000000	-0.014650
555.000000	-0.014837
554.000000	-0.014756
553.000000	-0.014718
552.000000	-0.014838
551.000000	-0.014707
550.000000	-0.014648
549.000000	-0.014251
548.000000	-0.014912
547.000000	-0.014572
546.000000	-0.014031
545.000000	-0.014892
544.000000	-0.014241
543.000000	-0.014534
542.000000	-0.015223
541.000000	-0.014845
540.000000	-0.014430
539.000000	-0.014811
538.000000	-0.015045
537.000000	-0.014445
536.000000	-0.014057
535.000000	-0.014545
534.000000	-0.014899
533.000000	-0.014475
532.000000	-0.015170
531.000000	-0.014724
530.000000	-0.015093
529.000000	-0.015076
528.000000	-0.014733
527.000000	-0.014784
526.000000	-0.014649
525.000000	-0.014721
524.000000	-0.014957
523.000000	-0.015681
522.000000	-0.014958
521.000000	-0.014864
520.000000	-0.014754
519.000000	-0.015146
518.000000	-0.015123
517.000000	-0.014572
516.000000	-0.014549
515.000000	-0.014771
514.000000	-0.015029
513.000000	-0.014419
512.000000	-0.014827
511.000000	-0.014869
510.000000	-0.014348
509.000000	-0.014557
508.000000	-0.014776
507.000000	-0.014479
506.000000	-0.014617
505.000000	-0.015050
504.000000	-0.014365
503.000000	-0.014422
502.000000	-0.014721
501.000000	-0.014426
500.000000	-0.014682
499.000000	-0.014305
498.000000	-0.014426
497.000000	-0.014451
496.000000	-0.014955
495.000000	-0.014316
494.000000	-0.014463
493.000000	-0.014253
492.000000	-0.013978
491.000000	-0.014008
490.000000	-0.014197
489.000000	-0.014034
488.000000	-0.013805
487.000000	-0.013847
486.000000	-0.014301
485.000000	-0.014191
484.000000	-0.013984
483.000000	-0.014066
482.000000	-0.013895
481.000000	-0.014525
480.000000	-0.014845
479.000000	-0.014799
478.000000	-0.014966
477.000000	-0.014777
476.000000	-0.014347
475.000000	-0.014688
474.000000	-0.014900
473.000000	-0.014852
472.000000	-0.014869
471.000000	-0.014807
470.000000	-0.014097
469.000000	-0.014559
468.000000	-0.014892
467.000000	-0.015150
466.000000	-0.014874
465.000000	-0.014740
464.000000	-0.014516
463.000000	-0.014612
462.000000	-0.015156
461.000000	-0.015367
460.000000	-0.014927
459.000000	-0.014831
458.000000	-0.014625
457.000000	-0.014644
456.000000	-0.014393
455.000000	-0.014788
454.000000	-0.014895
453.000000	-0.014720
452.000000	-0.014668
451.000000	-0.014251
450.000000	-0.014300
449.000000	-0.014183
448.000000	-0.014253
447.000000	-0.014558
446.000000	-0.014686
445.000000	-0.015127
444.000000	-0.014661
443.000000	-0.014407
442.000000	-0.014517
441.000000	-0.014863
440.000000	-0.014834
439.000000	-0.014504
438.000000	-0.014458
437.000000	-0.014554
436.000000	-0.015241
435.000000	-0.015632
434.000000	-0.015315
433.000000	-0.014958
432.000000	-0.014873
431.000000	-0.015322
430.000000	-0.014968
429.000000	-0.014600
428.000000	-0.014612
427.000000	-0.014742
426.000000	-0.014728
425.000000	-0.014773
424.000000	-0.014989
423.000000	-0.015240
422.000000	-0.015385
421.000000	-0.015616
420.000000	-0.015974
419.000000	-0.016187
418.000000	-0.015807
417.000000	-0.015602
416.000000	-0.015603
415.000000	-0.015707
414.000000	-0.015268
413.000000	-0.015251
412.000000	-0.015783
411.000000	-0.016120
410.000000	-0.016451
409.000000	-0.016208
408.000000	-0.015612
407.000000	-0.015594
406.000000	-0.016205
405.000000	-0.016559
404.000000	-0.016406
403.000000	-0.016846
402.000000	-0.016551
401.000000	-0.016360
400.000000	-0.016624
399.000000	-0.016415
398.000000	-0.016432
397.000000	-0.016956
396.000000	-0.016620
395.000000	-0.016340
394.000000	-0.016531
393.000000	-0.016058
392.000000	-0.015976
391.000000	-0.016845
390.000000	-0.016846
389.000000	-0.016753
388.000000	-0.016839
387.000000	-0.016969
386.000000	-0.016661
385.000000	-0.017477
384.000000	-0.018064
383.000000	-0.017237
382.000000	-0.016405
381.000000	-0.017389
380.000000	-0.017994
379.000000	-0.016242
378.000000	-0.014954
377.000000	-0.016561
376.000000	-0.015733
375.000000	-0.015693
374.000000	-0.019669
373.000000	-0.019046
372.000000	-0.016284
371.000000	-0.017373
370.000000	-0.018355
369.000000	-0.017756
368.000000	-0.017667
367.000000	-0.017692
366.000000	-0.017546
365.000000	-0.019267
364.000000	-0.018313
363.000000	-0.016296
362.000000	-0.016456
361.000000	-0.018778
360.000000	-0.019310
359.000000	-0.018289
358.000000	-0.020083
357.000000	-0.019354
356.000000	-0.018301
355.000000	-0.016592
354.000000	-0.017523
353.000000	-0.019898
352.000000	-0.018956
351.000000	-0.020839
350.000000	-0.018665
349.000000	-0.019545
348.000000	-0.018016
347.000000	-0.019976
346.000000	-0.019280
345.000000	-0.018200
344.000000	-0.021147
343.000000	-0.020682
342.000000	-0.020055
341.000000	-0.018484
340.000000	-0.019665
339.000000	-0.020425
338.000000	-0.017426
337.000000	-0.018434
336.000000	-0.021862
335.000000	-0.021475
334.000000	-0.020624
333.000000	-0.019012
332.000000	-0.016986
331.000000	-0.019604
330.000000	-0.018616
329.000000	-0.018813
328.000000	-0.020456
327.000000	-0.015458
326.000000	-0.017860
325.000000	-0.022715
324.000000	-0.014479
323.000000	-0.015203
322.000000	-0.016161
321.000000	-0.014834
320.000000	-0.013231
319.000000	-0.011358
318.000000	-0.011612
317.000000	-0.015279
316.000000	-0.011995
315.000000	-0.011161
314.000000	-0.010984
313.000000	-0.009023
312.000000	-0.008779
311.000000	-0.007683
310.000000	-0.005321
309.000000	-0.003877
308.000000	-0.002617
307.000000	-0.003756
306.000000	-0.001516
305.000000	0.000918
304.000000	0.002904
303.000000	0.005342
302.000000	0.008055
301.000000	0.006476
300.000000	0.009889
