PE UV       SUBTECH     SPECTRUM    ASCII       PEDS        4.00        
   -1
PETIT_87.Sample.Raw.asc
20/12/16
12:00:35.00
20/12/16
12:00:35.00
CNRS
RCC2379_D_DM
300.000000
1
Lambda 850
850L1011221
PerkinElmer UV WinLab 6.0.3.0730 / 1.61.00 Lambda 800

0
0
2
0
0
UV/VIS
1
1
1
RBeamAtt,SBeamAtt,150mm sphere / downward view
0
0
0
0
Fix
 
0
0.2
0
0
0
 
 
 
0
 
0
319.2
0
Front
50
 
S:100 R:100
 
0
0
0
 
0
 
 
 
0
 
 
0
0
0
0
0
 
 
 
 
0
0


#HDR
-1
-1
#GR
nm
A
1.0
0.0
800.000000
-1.000000
501
8
0.223486
-0.014643
#DATA
800.000000	-0.012966
799.000000	-0.014643
798.000000	-0.013563
797.000000	-0.013752
796.000000	-0.012063
795.000000	-0.012648
794.000000	-0.013299
793.000000	-0.013808
792.000000	-0.012944
791.000000	-0.013630
790.000000	-0.012976
789.000000	-0.014510
788.000000	-0.013135
787.000000	-0.012482
786.000000	-0.013124
785.000000	-0.013742
784.000000	-0.012355
783.000000	-0.013727
782.000000	-0.013435
781.000000	-0.014061
780.000000	-0.013633
779.000000	-0.013008
778.000000	-0.013090
777.000000	-0.012898
776.000000	-0.012517
775.000000	-0.012517
774.000000	-0.012819
773.000000	-0.012021
772.000000	-0.013702
771.000000	-0.012930
770.000000	-0.012446
769.000000	-0.012351
768.000000	-0.013800
767.000000	-0.012815
766.000000	-0.012866
765.000000	-0.013330
764.000000	-0.014543
763.000000	-0.013653
762.000000	-0.013041
761.000000	-0.013892
760.000000	-0.014156
759.000000	-0.013270
758.000000	-0.012776
757.000000	-0.012370
756.000000	-0.013043
755.000000	-0.013092
754.000000	-0.012944
753.000000	-0.013456
752.000000	-0.013656
751.000000	-0.012693
750.000000	-0.013447
749.000000	-0.012839
748.000000	-0.013278
747.000000	-0.013664
746.000000	-0.013148
745.000000	-0.013668
744.000000	-0.013318
743.000000	-0.013831
742.000000	-0.012084
741.000000	-0.013380
740.000000	-0.012990
739.000000	-0.013231
738.000000	-0.013174
737.000000	-0.013035
736.000000	-0.013945
735.000000	-0.012623
734.000000	-0.014235
733.000000	-0.013911
732.000000	-0.013947
731.000000	-0.013348
730.000000	-0.013563
729.000000	-0.014369
728.000000	-0.013580
727.000000	-0.013966
726.000000	-0.013805
725.000000	-0.013127
724.000000	-0.013534
723.000000	-0.013449
722.000000	-0.013505
721.000000	-0.013366
720.000000	-0.013551
719.000000	-0.012713
718.000000	-0.012986
717.000000	-0.013488
716.000000	-0.013484
715.000000	-0.012937
714.000000	-0.012240
713.000000	-0.012268
712.000000	-0.011595
711.000000	-0.010632
710.000000	-0.010802
709.000000	-0.010428
708.000000	-0.010251
707.000000	-0.009302
706.000000	-0.007314
705.000000	-0.006570
704.000000	-0.005204
703.000000	-0.003559
702.000000	-0.001763
701.000000	0.000417
700.000000	0.002798
699.000000	0.005288
698.000000	0.008435
697.000000	0.011812
696.000000	0.015680
695.000000	0.020468
694.000000	0.025031
693.000000	0.030046
692.000000	0.036076
691.000000	0.041993
690.000000	0.048668
689.000000	0.054859
688.000000	0.060871
687.000000	0.067729
686.000000	0.073766
685.000000	0.079721
684.000000	0.085281
683.000000	0.089973
682.000000	0.093402
681.000000	0.095494
680.000000	0.096890
679.000000	0.097403
678.000000	0.097260
677.000000	0.096763
676.000000	0.095665
675.000000	0.094181
674.000000	0.092428
673.000000	0.090462
672.000000	0.087725
671.000000	0.084846
670.000000	0.081973
669.000000	0.078554
668.000000	0.074369
667.000000	0.070471
666.000000	0.066544
665.000000	0.062063
664.000000	0.057620
663.000000	0.053109
662.000000	0.048872
661.000000	0.045161
660.000000	0.041822
659.000000	0.038648
658.000000	0.035456
657.000000	0.032708
656.000000	0.030692
655.000000	0.029251
654.000000	0.027838
653.000000	0.026975
652.000000	0.026513
651.000000	0.025586
650.000000	0.025181
649.000000	0.024604
648.000000	0.024836
647.000000	0.025198
646.000000	0.025031
645.000000	0.024645
644.000000	0.025744
643.000000	0.025961
642.000000	0.025788
641.000000	0.026240
640.000000	0.026712
639.000000	0.027148
638.000000	0.027681
637.000000	0.027789
636.000000	0.027489
635.000000	0.027677
634.000000	0.028079
633.000000	0.028571
632.000000	0.028676
631.000000	0.027977
630.000000	0.027676
629.000000	0.027726
628.000000	0.027364
627.000000	0.026973
626.000000	0.026528
625.000000	0.025889
624.000000	0.025224
623.000000	0.024383
622.000000	0.024197
621.000000	0.024727
620.000000	0.023794
619.000000	0.023205
618.000000	0.022175
617.000000	0.021686
616.000000	0.020914
615.000000	0.020292
614.000000	0.019505
613.000000	0.018924
612.000000	0.017901
611.000000	0.017301
610.000000	0.017024
609.000000	0.015693
608.000000	0.015017
607.000000	0.014574
606.000000	0.014206
605.000000	0.013896
604.000000	0.013375
603.000000	0.013626
602.000000	0.013391
601.000000	0.013122
600.000000	0.012577
599.000000	0.012964
598.000000	0.012383
597.000000	0.012643
596.000000	0.012639
595.000000	0.012884
594.000000	0.012849
593.000000	0.012941
592.000000	0.012516
591.000000	0.013049
590.000000	0.013424
589.000000	0.013257
588.000000	0.013198
587.000000	0.013604
586.000000	0.014042
585.000000	0.013501
584.000000	0.014283
583.000000	0.014701
582.000000	0.015438
581.000000	0.016004
580.000000	0.016953
579.000000	0.017571
578.000000	0.019048
577.000000	0.020607
576.000000	0.022184
575.000000	0.023412
574.000000	0.025337
573.000000	0.027374
572.000000	0.029001
571.000000	0.030611
570.000000	0.031852
569.000000	0.033127
568.000000	0.034012
567.000000	0.035105
566.000000	0.035633
565.000000	0.035818
564.000000	0.036422
563.000000	0.036578
562.000000	0.036614
561.000000	0.037870
560.000000	0.038338
559.000000	0.039215
558.000000	0.039515
557.000000	0.040238
556.000000	0.040290
555.000000	0.040978
554.000000	0.041809
553.000000	0.042440
552.000000	0.043297
551.000000	0.043959
550.000000	0.044155
549.000000	0.045381
548.000000	0.045847
547.000000	0.046653
546.000000	0.047184
545.000000	0.047268
544.000000	0.047920
543.000000	0.047925
542.000000	0.048243
541.000000	0.048225
540.000000	0.048765
539.000000	0.048250
538.000000	0.048999
537.000000	0.049496
536.000000	0.049389
535.000000	0.049923
534.000000	0.050331
533.000000	0.050419
532.000000	0.050965
531.000000	0.051251
530.000000	0.051597
529.000000	0.052363
528.000000	0.053251
527.000000	0.054578
526.000000	0.055901
525.000000	0.056949
524.000000	0.058531
523.000000	0.060520
522.000000	0.061802
521.000000	0.064081
520.000000	0.066237
519.000000	0.068710
518.000000	0.071984
517.000000	0.075454
516.000000	0.077986
515.000000	0.081081
514.000000	0.085132
513.000000	0.088143
512.000000	0.092232
511.000000	0.095955
510.000000	0.100648
509.000000	0.104480
508.000000	0.108840
507.000000	0.113271
506.000000	0.117819
505.000000	0.122033
504.000000	0.127512
503.000000	0.131798
502.000000	0.135940
501.000000	0.139658
500.000000	0.144008
499.000000	0.147385
498.000000	0.149684
497.000000	0.152032
496.000000	0.153513
495.000000	0.155354
494.000000	0.156392
493.000000	0.156894
492.000000	0.157640
491.000000	0.157843
490.000000	0.157044
489.000000	0.156766
488.000000	0.156309
487.000000	0.155660
486.000000	0.154374
485.000000	0.153690
484.000000	0.153775
483.000000	0.152759
482.000000	0.152618
481.000000	0.152339
480.000000	0.152111
479.000000	0.152179
478.000000	0.152722
477.000000	0.153155
476.000000	0.154511
475.000000	0.156067
474.000000	0.157105
473.000000	0.158339
472.000000	0.159522
471.000000	0.161143
470.000000	0.162604
469.000000	0.164419
468.000000	0.165979
467.000000	0.166877
466.000000	0.167899
465.000000	0.169515
464.000000	0.170927
463.000000	0.172011
462.000000	0.172817
461.000000	0.173000
460.000000	0.173734
459.000000	0.174717
458.000000	0.175787
457.000000	0.176312
456.000000	0.177537
455.000000	0.178756
454.000000	0.180834
453.000000	0.183033
452.000000	0.185257
451.000000	0.187982
450.000000	0.191287
449.000000	0.195119
448.000000	0.199122
447.000000	0.202497
446.000000	0.206165
445.000000	0.209727
444.000000	0.213609
443.000000	0.216506
442.000000	0.218728
441.000000	0.220566
440.000000	0.222026
439.000000	0.223017
438.000000	0.223173
437.000000	0.223486
436.000000	0.222661
435.000000	0.221531
434.000000	0.221215
433.000000	0.219880
432.000000	0.217542
431.000000	0.215378
430.000000	0.214299
429.000000	0.212524
428.000000	0.211000
427.000000	0.210286
426.000000	0.209071
425.000000	0.207642
424.000000	0.206644
423.000000	0.205501
422.000000	0.204515
421.000000	0.203819
420.000000	0.203571
419.000000	0.203166
418.000000	0.202436
417.000000	0.201377
416.000000	0.200371
415.000000	0.199710
414.000000	0.198943
413.000000	0.197871
412.000000	0.196399
411.000000	0.195452
410.000000	0.194115
409.000000	0.192461
408.000000	0.191027
407.000000	0.189503
406.000000	0.188376
405.000000	0.187516
404.000000	0.186555
403.000000	0.186069
402.000000	0.185613
401.000000	0.185670
400.000000	0.185899
399.000000	0.185909
398.000000	0.186251
397.000000	0.186652
396.000000	0.187421
395.000000	0.187913
394.000000	0.188165
393.000000	0.188351
392.000000	0.188991
391.000000	0.188136
390.000000	0.187463
389.000000	0.186801
388.000000	0.186032
387.000000	0.184931
386.000000	0.183643
385.000000	0.181811
384.000000	0.178549
383.000000	0.176856
382.000000	0.174492
381.000000	0.169919
380.000000	0.166116
379.000000	0.164647
378.000000	0.157740
377.000000	0.148572
376.000000	0.144235
375.000000	0.140234
374.000000	0.134546
373.000000	0.131272
372.000000	0.126433
371.000000	0.120828
370.000000	0.116275
369.000000	0.114395
368.000000	0.110750
367.000000	0.108123
366.000000	0.103438
365.000000	0.101042
364.000000	0.099475
363.000000	0.097750
362.000000	0.096738
361.000000	0.091477
360.000000	0.089011
359.000000	0.086555
358.000000	0.084095
357.000000	0.083285
356.000000	0.083437
355.000000	0.083555
354.000000	0.080174
353.000000	0.077849
352.000000	0.079088
351.000000	0.075262
350.000000	0.075962
349.000000	0.074785
348.000000	0.075859
347.000000	0.075423
346.000000	0.073622
345.000000	0.075251
344.000000	0.075835
343.000000	0.072973
342.000000	0.074032
341.000000	0.074215
340.000000	0.074897
339.000000	0.074285
338.000000	0.076384
337.000000	0.072339
336.000000	0.070032
335.000000	0.069825
334.000000	0.068011
333.000000	0.071523
332.000000	0.070920
331.000000	0.068594
330.000000	0.066629
329.000000	0.063741
328.000000	0.062914
327.000000	0.068915
326.000000	0.068926
325.000000	0.061790
324.000000	0.067312
323.000000	0.064563
322.000000	0.061020
321.000000	0.064939
320.000000	0.066083
319.000000	0.065374
318.000000	0.065188
317.000000	0.062979
316.000000	0.063371
315.000000	0.063301
314.000000	0.066124
313.000000	0.066605
312.000000	0.067853
311.000000	0.070276
310.000000	0.072474
309.000000	0.074204
308.000000	0.075607
307.000000	0.077594
306.000000	0.081453
305.000000	0.086598
304.000000	0.089438
303.000000	0.096486
302.000000	0.103102
301.000000	0.106226
300.000000	0.112843
