PE UV       SUBTECH     SPECTRUM    ASCII       PEDS        4.00        
   -1
PETIT_78.Sample.Raw.asc
20/12/16
11:03:48.00
20/12/16
11:03:48.00
CNRS
RCC2319_C_DM
300.000000
1
Lambda 850
850L1011221
PerkinElmer UV WinLab 6.0.3.0730 / 1.61.00 Lambda 800

0
0
2
0
0
UV/VIS
1
1
1
RBeamAtt,SBeamAtt,150mm sphere / downward view
0
0
0
0
Fix
 
0
0.2
0
0
0
 
 
 
0
 
0
319.2
0
Front
50
 
S:100 R:100
 
0
0
0
 
0
 
 
 
0
 
 
0
0
0
0
0
 
 
 
 
0
0


#HDR
-1
-1
#GR
nm
A
1.0
0.0
800.000000
-1.000000
501
8
0.223919
-0.015196
#DATA
800.000000	-0.012791
799.000000	-0.013433
798.000000	-0.015196
797.000000	-0.014765
796.000000	-0.013247
795.000000	-0.012959
794.000000	-0.013053
793.000000	-0.014431
792.000000	-0.013246
791.000000	-0.013595
790.000000	-0.013747
789.000000	-0.014113
788.000000	-0.013850
787.000000	-0.012666
786.000000	-0.013423
785.000000	-0.015051
784.000000	-0.012880
783.000000	-0.014213
782.000000	-0.014597
781.000000	-0.014123
780.000000	-0.014370
779.000000	-0.013755
778.000000	-0.012735
777.000000	-0.012543
776.000000	-0.013019
775.000000	-0.013505
774.000000	-0.013514
773.000000	-0.013664
772.000000	-0.013813
771.000000	-0.013803
770.000000	-0.013637
769.000000	-0.013400
768.000000	-0.014203
767.000000	-0.013293
766.000000	-0.014027
765.000000	-0.013805
764.000000	-0.013470
763.000000	-0.014142
762.000000	-0.013213
761.000000	-0.014053
760.000000	-0.014046
759.000000	-0.013830
758.000000	-0.013885
757.000000	-0.012103
756.000000	-0.013378
755.000000	-0.014042
754.000000	-0.014975
753.000000	-0.014094
752.000000	-0.014005
751.000000	-0.013627
750.000000	-0.014227
749.000000	-0.013473
748.000000	-0.014032
747.000000	-0.013742
746.000000	-0.013629
745.000000	-0.013324
744.000000	-0.013721
743.000000	-0.014224
742.000000	-0.013606
741.000000	-0.013640
740.000000	-0.013335
739.000000	-0.013664
738.000000	-0.014485
737.000000	-0.013678
736.000000	-0.013831
735.000000	-0.013491
734.000000	-0.014485
733.000000	-0.014009
732.000000	-0.013959
731.000000	-0.013349
730.000000	-0.014417
729.000000	-0.015000
728.000000	-0.013903
727.000000	-0.014078
726.000000	-0.014009
725.000000	-0.013472
724.000000	-0.012582
723.000000	-0.013579
722.000000	-0.014341
721.000000	-0.014042
720.000000	-0.013347
719.000000	-0.013315
718.000000	-0.012946
717.000000	-0.012382
716.000000	-0.012488
715.000000	-0.012839
714.000000	-0.012426
713.000000	-0.011857
712.000000	-0.011021
711.000000	-0.010657
710.000000	-0.010530
709.000000	-0.010032
708.000000	-0.009061
707.000000	-0.007891
706.000000	-0.006141
705.000000	-0.005432
704.000000	-0.003941
703.000000	-0.001489
702.000000	0.000353
701.000000	0.002766
700.000000	0.005921
699.000000	0.008864
698.000000	0.012068
697.000000	0.016189
696.000000	0.020976
695.000000	0.025950
694.000000	0.031190
693.000000	0.037302
692.000000	0.044346
691.000000	0.051568
690.000000	0.059000
689.000000	0.066911
688.000000	0.075078
687.000000	0.083297
686.000000	0.090598
685.000000	0.098009
684.000000	0.104387
683.000000	0.109745
682.000000	0.114606
681.000000	0.118267
680.000000	0.120231
679.000000	0.121235
678.000000	0.121615
677.000000	0.121172
676.000000	0.120354
675.000000	0.119058
674.000000	0.117008
673.000000	0.114347
672.000000	0.111047
671.000000	0.107646
670.000000	0.103566
669.000000	0.098913
668.000000	0.093689
667.000000	0.087898
666.000000	0.082236
665.000000	0.076176
664.000000	0.070199
663.000000	0.064174
662.000000	0.058206
661.000000	0.053417
660.000000	0.048822
659.000000	0.044174
658.000000	0.039866
657.000000	0.036399
656.000000	0.033249
655.000000	0.030956
654.000000	0.029531
653.000000	0.027855
652.000000	0.026471
651.000000	0.025708
650.000000	0.025226
649.000000	0.025142
648.000000	0.025341
647.000000	0.025401
646.000000	0.025680
645.000000	0.026223
644.000000	0.027208
643.000000	0.027926
642.000000	0.028286
641.000000	0.029612
640.000000	0.030885
639.000000	0.031171
638.000000	0.031766
637.000000	0.032458
636.000000	0.032375
635.000000	0.033080
634.000000	0.033905
633.000000	0.034339
632.000000	0.034328
631.000000	0.034103
630.000000	0.034143
629.000000	0.033986
628.000000	0.033594
627.000000	0.033302
626.000000	0.032761
625.000000	0.032464
624.000000	0.032172
623.000000	0.031088
622.000000	0.030856
621.000000	0.030774
620.000000	0.029701
619.000000	0.028915
618.000000	0.027958
617.000000	0.027546
616.000000	0.026632
615.000000	0.025408
614.000000	0.024541
613.000000	0.023662
612.000000	0.022273
611.000000	0.021541
610.000000	0.020833
609.000000	0.019766
608.000000	0.018771
607.000000	0.018335
606.000000	0.017766
605.000000	0.017125
604.000000	0.016236
603.000000	0.016508
602.000000	0.016630
601.000000	0.016560
600.000000	0.015775
599.000000	0.015528
598.000000	0.015446
597.000000	0.015438
596.000000	0.015839
595.000000	0.016035
594.000000	0.016276
593.000000	0.016371
592.000000	0.016008
591.000000	0.016323
590.000000	0.016740
589.000000	0.016699
588.000000	0.016429
587.000000	0.016405
586.000000	0.016779
585.000000	0.016960
584.000000	0.016612
583.000000	0.017362
582.000000	0.017742
581.000000	0.018034
580.000000	0.018751
579.000000	0.019354
578.000000	0.020430
577.000000	0.022235
576.000000	0.023517
575.000000	0.025231
574.000000	0.026697
573.000000	0.028282
572.000000	0.030518
571.000000	0.032956
570.000000	0.034236
569.000000	0.035981
568.000000	0.037862
567.000000	0.040504
566.000000	0.042325
565.000000	0.043721
564.000000	0.046125
563.000000	0.048284
562.000000	0.050707
561.000000	0.053664
560.000000	0.056795
559.000000	0.059436
558.000000	0.062565
557.000000	0.065752
556.000000	0.068029
555.000000	0.070533
554.000000	0.073193
553.000000	0.075550
552.000000	0.077167
551.000000	0.079311
550.000000	0.080187
549.000000	0.081151
548.000000	0.082397
547.000000	0.082751
546.000000	0.082829
545.000000	0.082785
544.000000	0.083244
543.000000	0.082701
542.000000	0.082200
541.000000	0.081109
540.000000	0.081465
539.000000	0.080412
538.000000	0.079930
537.000000	0.080041
536.000000	0.079130
535.000000	0.079085
534.000000	0.078104
533.000000	0.077311
532.000000	0.076905
531.000000	0.076794
530.000000	0.076259
529.000000	0.075835
528.000000	0.076149
527.000000	0.075817
526.000000	0.075934
525.000000	0.075827
524.000000	0.075811
523.000000	0.077232
522.000000	0.077876
521.000000	0.079566
520.000000	0.081020
519.000000	0.082161
518.000000	0.083905
517.000000	0.086767
516.000000	0.088589
515.000000	0.091100
514.000000	0.093932
513.000000	0.096756
512.000000	0.100384
511.000000	0.103521
510.000000	0.107578
509.000000	0.110571
508.000000	0.114693
507.000000	0.119226
506.000000	0.122903
505.000000	0.127333
504.000000	0.132029
503.000000	0.135872
502.000000	0.139840
501.000000	0.143458
500.000000	0.146586
499.000000	0.149367
498.000000	0.151644
497.000000	0.153969
496.000000	0.154846
495.000000	0.157102
494.000000	0.157735
493.000000	0.158590
492.000000	0.159336
491.000000	0.158895
490.000000	0.157818
489.000000	0.157424
488.000000	0.156452
487.000000	0.155437
486.000000	0.153848
485.000000	0.152611
484.000000	0.151809
483.000000	0.150139
482.000000	0.149013
481.000000	0.147454
480.000000	0.146388
479.000000	0.145969
478.000000	0.145861
477.000000	0.145528
476.000000	0.146565
475.000000	0.147078
474.000000	0.147515
473.000000	0.148567
472.000000	0.149492
471.000000	0.150974
470.000000	0.152440
469.000000	0.153530
468.000000	0.154564
467.000000	0.155372
466.000000	0.156280
465.000000	0.157384
464.000000	0.158871
463.000000	0.159236
462.000000	0.159759
461.000000	0.160209
460.000000	0.161133
459.000000	0.161884
458.000000	0.162654
457.000000	0.163719
456.000000	0.165705
455.000000	0.167325
454.000000	0.169081
453.000000	0.172454
452.000000	0.175583
451.000000	0.179122
450.000000	0.183960
449.000000	0.188649
448.000000	0.194423
447.000000	0.198992
446.000000	0.203758
445.000000	0.208565
444.000000	0.212917
443.000000	0.216122
442.000000	0.218722
441.000000	0.221103
440.000000	0.223112
439.000000	0.223919
438.000000	0.223689
437.000000	0.223337
436.000000	0.222641
435.000000	0.220730
434.000000	0.218153
433.000000	0.216113
432.000000	0.213877
431.000000	0.211137
430.000000	0.209297
429.000000	0.206993
428.000000	0.204680
427.000000	0.203114
426.000000	0.201458
425.000000	0.199943
424.000000	0.198563
423.000000	0.197524
422.000000	0.196771
421.000000	0.195629
420.000000	0.195622
419.000000	0.194822
418.000000	0.192864
417.000000	0.191229
416.000000	0.189572
415.000000	0.187416
414.000000	0.185662
413.000000	0.183375
412.000000	0.180049
411.000000	0.176759
410.000000	0.173092
409.000000	0.169957
408.000000	0.166883
407.000000	0.163114
406.000000	0.159552
405.000000	0.156467
404.000000	0.153737
403.000000	0.150249
402.000000	0.148062
401.000000	0.146259
400.000000	0.143926
399.000000	0.141603
398.000000	0.139273
397.000000	0.137517
396.000000	0.136368
395.000000	0.136000
394.000000	0.134424
393.000000	0.132611
392.000000	0.132221
391.000000	0.130527
390.000000	0.128735
389.000000	0.128081
388.000000	0.126363
387.000000	0.125373
386.000000	0.125219
385.000000	0.123440
384.000000	0.121438
383.000000	0.120415
382.000000	0.120150
381.000000	0.118181
380.000000	0.115577
379.000000	0.115090
378.000000	0.113468
377.000000	0.108208
376.000000	0.104836
375.000000	0.104292
374.000000	0.100098
373.000000	0.098805
372.000000	0.096919
371.000000	0.094243
370.000000	0.093300
369.000000	0.092463
368.000000	0.092351
367.000000	0.090705
366.000000	0.088101
365.000000	0.087146
364.000000	0.086850
363.000000	0.088214
362.000000	0.087916
361.000000	0.083787
360.000000	0.083985
359.000000	0.081477
358.000000	0.080908
357.000000	0.081043
356.000000	0.080006
355.000000	0.081918
354.000000	0.080590
353.000000	0.079486
352.000000	0.081705
351.000000	0.079279
350.000000	0.080142
349.000000	0.080956
348.000000	0.080365
347.000000	0.080703
346.000000	0.083015
345.000000	0.085520
344.000000	0.084630
343.000000	0.084926
342.000000	0.084718
341.000000	0.086420
340.000000	0.084529
339.000000	0.084002
338.000000	0.089047
337.000000	0.086174
336.000000	0.085032
335.000000	0.085492
334.000000	0.081197
333.000000	0.082999
332.000000	0.083580
331.000000	0.082159
330.000000	0.078874
329.000000	0.080697
328.000000	0.081247
327.000000	0.083256
326.000000	0.081298
325.000000	0.076948
324.000000	0.082563
323.000000	0.078443
322.000000	0.079437
321.000000	0.082042
320.000000	0.082494
319.000000	0.080746
318.000000	0.080080
317.000000	0.080776
316.000000	0.080936
315.000000	0.082903
314.000000	0.082259
313.000000	0.087779
312.000000	0.085298
311.000000	0.088254
310.000000	0.092120
309.000000	0.095390
308.000000	0.097792
307.000000	0.098561
306.000000	0.102328
305.000000	0.107850
304.000000	0.114128
303.000000	0.118879
302.000000	0.127458
301.000000	0.131699
300.000000	0.138501
