PE UV       SUBTECH     SPECTRUM    ASCII       PEDS        4.00        
   -1
PETIT_60.Sample.Raw.asc
20/12/16
09:28:44.00
20/12/16
09:28:44.00
CNRS
Blanc02
300.000000
1
Lambda 850
850L1011221
PerkinElmer UV WinLab 6.0.3.0730 / 1.61.00 Lambda 800

0
0
2
0
0
UV/VIS
1
1
1
RBeamAtt,SBeamAtt,150mm sphere / downward view
0
0
0
0
Fix
 
0
0.2
0
0
0
 
 
 
0
 
0
319.2
0
Front
50
 
S:100 R:100
 
0
0
0
 
0
 
 
 
0
 
 
0
0
0
0
0
 
 
 
 
0
0


#HDR
-1
-1
#GR
nm
A
1.0
0.0
800.000000
-1.000000
501
8
0.010906
-0.021885
#DATA
800.000000	-0.013329
799.000000	-0.013807
798.000000	-0.014063
797.000000	-0.013677
796.000000	-0.013504
795.000000	-0.014424
794.000000	-0.014064
793.000000	-0.013957
792.000000	-0.013596
791.000000	-0.014417
790.000000	-0.014645
789.000000	-0.013644
788.000000	-0.014668
787.000000	-0.012927
786.000000	-0.013020
785.000000	-0.014342
784.000000	-0.013360
783.000000	-0.014392
782.000000	-0.014735
781.000000	-0.014480
780.000000	-0.014106
779.000000	-0.014224
778.000000	-0.014291
777.000000	-0.013122
776.000000	-0.013654
775.000000	-0.013392
774.000000	-0.014536
773.000000	-0.013482
772.000000	-0.014615
771.000000	-0.013244
770.000000	-0.013441
769.000000	-0.013798
768.000000	-0.014426
767.000000	-0.014044
766.000000	-0.014395
765.000000	-0.014342
764.000000	-0.013148
763.000000	-0.014221
762.000000	-0.014662
761.000000	-0.013715
760.000000	-0.014076
759.000000	-0.013763
758.000000	-0.013401
757.000000	-0.012575
756.000000	-0.013211
755.000000	-0.013749
754.000000	-0.014092
753.000000	-0.013459
752.000000	-0.014032
751.000000	-0.013186
750.000000	-0.013744
749.000000	-0.014080
748.000000	-0.014064
747.000000	-0.014012
746.000000	-0.013615
745.000000	-0.013289
744.000000	-0.014280
743.000000	-0.013967
742.000000	-0.012944
741.000000	-0.013985
740.000000	-0.014241
739.000000	-0.014128
738.000000	-0.014334
737.000000	-0.014055
736.000000	-0.014780
735.000000	-0.014168
734.000000	-0.014809
733.000000	-0.014890
732.000000	-0.014478
731.000000	-0.013101
730.000000	-0.013895
729.000000	-0.014682
728.000000	-0.014659
727.000000	-0.014597
726.000000	-0.014365
725.000000	-0.014281
724.000000	-0.013978
723.000000	-0.014239
722.000000	-0.014121
721.000000	-0.014827
720.000000	-0.015017
719.000000	-0.014733
718.000000	-0.014972
717.000000	-0.014983
716.000000	-0.014710
715.000000	-0.014833
714.000000	-0.014773
713.000000	-0.014927
712.000000	-0.014722
711.000000	-0.014221
710.000000	-0.014719
709.000000	-0.014473
708.000000	-0.015366
707.000000	-0.015606
706.000000	-0.014481
705.000000	-0.014684
704.000000	-0.015044
703.000000	-0.015034
702.000000	-0.015035
701.000000	-0.014845
700.000000	-0.014749
699.000000	-0.014812
698.000000	-0.014932
697.000000	-0.015130
696.000000	-0.015226
695.000000	-0.014979
694.000000	-0.014972
693.000000	-0.015373
692.000000	-0.015156
691.000000	-0.015082
690.000000	-0.015213
689.000000	-0.015269
688.000000	-0.015320
687.000000	-0.014917
686.000000	-0.015058
685.000000	-0.014433
684.000000	-0.014625
683.000000	-0.015249
682.000000	-0.014730
681.000000	-0.014708
680.000000	-0.015230
679.000000	-0.015112
678.000000	-0.015401
677.000000	-0.015418
676.000000	-0.014807
675.000000	-0.014528
674.000000	-0.014528
673.000000	-0.014476
672.000000	-0.014804
671.000000	-0.014959
670.000000	-0.014877
669.000000	-0.014965
668.000000	-0.015231
667.000000	-0.015365
666.000000	-0.015187
665.000000	-0.015042
664.000000	-0.014927
663.000000	-0.015076
662.000000	-0.014829
661.000000	-0.014657
660.000000	-0.014764
659.000000	-0.014679
658.000000	-0.014936
657.000000	-0.015284
656.000000	-0.015392
655.000000	-0.014751
654.000000	-0.014716
653.000000	-0.014813
652.000000	-0.014906
651.000000	-0.015095
650.000000	-0.014931
649.000000	-0.015010
648.000000	-0.014983
647.000000	-0.015400
646.000000	-0.015322
645.000000	-0.015543
644.000000	-0.015119
643.000000	-0.014851
642.000000	-0.015334
641.000000	-0.014909
640.000000	-0.014921
639.000000	-0.015036
638.000000	-0.014966
637.000000	-0.014987
636.000000	-0.015667
635.000000	-0.015635
634.000000	-0.015215
633.000000	-0.014860
632.000000	-0.014918
631.000000	-0.015509
630.000000	-0.015593
629.000000	-0.015129
628.000000	-0.015223
627.000000	-0.015218
626.000000	-0.015159
625.000000	-0.015481
624.000000	-0.015415
623.000000	-0.015696
622.000000	-0.015688
621.000000	-0.014689
620.000000	-0.014933
619.000000	-0.015066
618.000000	-0.015282
617.000000	-0.014861
616.000000	-0.015136
615.000000	-0.015235
614.000000	-0.015397
613.000000	-0.015571
612.000000	-0.015398
611.000000	-0.015105
610.000000	-0.015180
609.000000	-0.015517
608.000000	-0.015377
607.000000	-0.015233
606.000000	-0.015210
605.000000	-0.015251
604.000000	-0.015383
603.000000	-0.015019
602.000000	-0.015114
601.000000	-0.014800
600.000000	-0.015170
599.000000	-0.014719
598.000000	-0.015064
597.000000	-0.015643
596.000000	-0.015610
595.000000	-0.015234
594.000000	-0.015057
593.000000	-0.015141
592.000000	-0.015876
591.000000	-0.015170
590.000000	-0.015049
589.000000	-0.014882
588.000000	-0.015403
587.000000	-0.015517
586.000000	-0.015088
585.000000	-0.015388
584.000000	-0.015369
583.000000	-0.015143
582.000000	-0.015423
581.000000	-0.015537
580.000000	-0.015450
579.000000	-0.015251
578.000000	-0.015481
577.000000	-0.015351
576.000000	-0.015251
575.000000	-0.015298
574.000000	-0.015660
573.000000	-0.015424
572.000000	-0.015191
571.000000	-0.015118
570.000000	-0.015420
569.000000	-0.015297
568.000000	-0.015467
567.000000	-0.015000
566.000000	-0.015020
565.000000	-0.014902
564.000000	-0.014886
563.000000	-0.015207
562.000000	-0.015642
561.000000	-0.014825
560.000000	-0.014820
559.000000	-0.014817
558.000000	-0.014801
557.000000	-0.014735
556.000000	-0.014937
555.000000	-0.015169
554.000000	-0.014794
553.000000	-0.015019
552.000000	-0.015010
551.000000	-0.015031
550.000000	-0.015369
549.000000	-0.015145
548.000000	-0.015176
547.000000	-0.015039
546.000000	-0.014493
545.000000	-0.014722
544.000000	-0.014064
543.000000	-0.014940
542.000000	-0.014986
541.000000	-0.014896
540.000000	-0.015279
539.000000	-0.015231
538.000000	-0.014978
537.000000	-0.015245
536.000000	-0.015240
535.000000	-0.015508
534.000000	-0.015058
533.000000	-0.014959
532.000000	-0.014562
531.000000	-0.014950
530.000000	-0.015381
529.000000	-0.015369
528.000000	-0.014869
527.000000	-0.014883
526.000000	-0.015069
525.000000	-0.014906
524.000000	-0.015115
523.000000	-0.014995
522.000000	-0.015829
521.000000	-0.015366
520.000000	-0.015608
519.000000	-0.015623
518.000000	-0.015536
517.000000	-0.014977
516.000000	-0.014934
515.000000	-0.014783
514.000000	-0.014887
513.000000	-0.014964
512.000000	-0.015177
511.000000	-0.015235
510.000000	-0.014671
509.000000	-0.015278
508.000000	-0.015483
507.000000	-0.015060
506.000000	-0.014931
505.000000	-0.015101
504.000000	-0.014832
503.000000	-0.015175
502.000000	-0.015134
501.000000	-0.014860
500.000000	-0.014579
499.000000	-0.014808
498.000000	-0.014953
497.000000	-0.014788
496.000000	-0.015309
495.000000	-0.014638
494.000000	-0.014698
493.000000	-0.014817
492.000000	-0.014960
491.000000	-0.014683
490.000000	-0.014991
489.000000	-0.014751
488.000000	-0.014344
487.000000	-0.014215
486.000000	-0.014201
485.000000	-0.014430
484.000000	-0.014143
483.000000	-0.014491
482.000000	-0.014466
481.000000	-0.014705
480.000000	-0.015067
479.000000	-0.015391
478.000000	-0.015146
477.000000	-0.015496
476.000000	-0.014493
475.000000	-0.014581
474.000000	-0.015388
473.000000	-0.015475
472.000000	-0.015385
471.000000	-0.015515
470.000000	-0.015136
469.000000	-0.014898
468.000000	-0.015075
467.000000	-0.015434
466.000000	-0.015590
465.000000	-0.015309
464.000000	-0.014758
463.000000	-0.014944
462.000000	-0.015224
461.000000	-0.015617
460.000000	-0.015702
459.000000	-0.015473
458.000000	-0.015089
457.000000	-0.015455
456.000000	-0.015501
455.000000	-0.015182
454.000000	-0.015169
453.000000	-0.015423
452.000000	-0.015613
451.000000	-0.015203
450.000000	-0.015031
449.000000	-0.014927
448.000000	-0.014876
447.000000	-0.015122
446.000000	-0.015207
445.000000	-0.015584
444.000000	-0.015365
443.000000	-0.015261
442.000000	-0.015072
441.000000	-0.015177
440.000000	-0.015480
439.000000	-0.015284
438.000000	-0.015336
437.000000	-0.015231
436.000000	-0.015601
435.000000	-0.015707
434.000000	-0.015631
433.000000	-0.015693
432.000000	-0.015850
431.000000	-0.016141
430.000000	-0.015674
429.000000	-0.015373
428.000000	-0.015668
427.000000	-0.015593
426.000000	-0.015515
425.000000	-0.016173
424.000000	-0.016157
423.000000	-0.015876
422.000000	-0.016115
421.000000	-0.016951
420.000000	-0.016627
419.000000	-0.015804
418.000000	-0.015836
417.000000	-0.016066
416.000000	-0.016188
415.000000	-0.016020
414.000000	-0.016371
413.000000	-0.016454
412.000000	-0.016455
411.000000	-0.016670
410.000000	-0.016718
409.000000	-0.016326
408.000000	-0.016110
407.000000	-0.016723
406.000000	-0.017062
405.000000	-0.017338
404.000000	-0.017359
403.000000	-0.017299
402.000000	-0.016779
401.000000	-0.016466
400.000000	-0.016812
399.000000	-0.017065
398.000000	-0.017279
397.000000	-0.018159
396.000000	-0.017317
395.000000	-0.016546
394.000000	-0.017085
393.000000	-0.017685
392.000000	-0.016905
391.000000	-0.017125
390.000000	-0.017488
389.000000	-0.017226
388.000000	-0.017809
387.000000	-0.018028
386.000000	-0.017547
385.000000	-0.017940
384.000000	-0.019043
383.000000	-0.018079
382.000000	-0.017017
381.000000	-0.017532
380.000000	-0.018515
379.000000	-0.017163
378.000000	-0.016767
377.000000	-0.018265
376.000000	-0.016260
375.000000	-0.016719
374.000000	-0.017852
373.000000	-0.016544
372.000000	-0.017186
371.000000	-0.017681
370.000000	-0.019614
369.000000	-0.018667
368.000000	-0.018579
367.000000	-0.018103
366.000000	-0.018067
365.000000	-0.019573
364.000000	-0.018306
363.000000	-0.017822
362.000000	-0.017498
361.000000	-0.019056
360.000000	-0.020071
359.000000	-0.019817
358.000000	-0.018287
357.000000	-0.019962
356.000000	-0.019335
355.000000	-0.017449
354.000000	-0.019328
353.000000	-0.019865
352.000000	-0.018503
351.000000	-0.019596
350.000000	-0.020326
349.000000	-0.021542
348.000000	-0.021885
347.000000	-0.020790
346.000000	-0.020717
345.000000	-0.020015
344.000000	-0.020504
343.000000	-0.021200
342.000000	-0.021134
341.000000	-0.020393
340.000000	-0.019658
339.000000	-0.020101
338.000000	-0.018915
337.000000	-0.019027
336.000000	-0.020107
335.000000	-0.018595
334.000000	-0.021030
333.000000	-0.017558
332.000000	-0.020295
331.000000	-0.020126
330.000000	-0.020377
329.000000	-0.017837
328.000000	-0.019604
327.000000	-0.017150
326.000000	-0.017425
325.000000	-0.019435
324.000000	-0.016314
323.000000	-0.018500
322.000000	-0.017490
321.000000	-0.016935
320.000000	-0.013417
319.000000	-0.013397
318.000000	-0.013095
317.000000	-0.013528
316.000000	-0.012007
315.000000	-0.012302
314.000000	-0.011172
313.000000	-0.006497
312.000000	-0.010392
311.000000	-0.006461
310.000000	-0.005284
309.000000	-0.003627
308.000000	-0.004862
307.000000	-0.003434
306.000000	-0.000712
305.000000	0.001462
304.000000	0.004913
303.000000	0.005250
302.000000	0.007592
301.000000	0.010111
300.000000	0.010906
