PE UV       SUBTECH     SPECTRUM    ASCII       PEDS        4.00        
   -1
PETIT_74.Sample.Raw.asc
20/12/16
10:47:08.00
20/12/16
10:47:08.00
CNRS
RCC4213_C_DM
300.000000
1
Lambda 850
850L1011221
PerkinElmer UV WinLab 6.0.3.0730 / 1.61.00 Lambda 800

0
0
2
0
0
UV/VIS
1
1
1
RBeamAtt,SBeamAtt,150mm sphere / downward view
0
0
0
0
Fix
 
0
0.2
0
0
0
 
 
 
0
 
0
319.2
0
Front
50
 
S:100 R:100
 
0
0
0
 
0
 
 
 
0
 
 
0
0
0
0
0
 
 
 
 
0
0


#HDR
-1
-1
#GR
nm
A
1.0
0.0
800.000000
-1.000000
501
8
0.125957
-0.014879
#DATA
800.000000	-0.013329
799.000000	-0.014327
798.000000	-0.014053
797.000000	-0.013674
796.000000	-0.012799
795.000000	-0.012837
794.000000	-0.012983
793.000000	-0.014305
792.000000	-0.013420
791.000000	-0.013690
790.000000	-0.013962
789.000000	-0.014221
788.000000	-0.013568
787.000000	-0.012082
786.000000	-0.014211
785.000000	-0.013770
784.000000	-0.012803
783.000000	-0.013082
782.000000	-0.013411
781.000000	-0.013468
780.000000	-0.012243
779.000000	-0.013153
778.000000	-0.012808
777.000000	-0.012993
776.000000	-0.012831
775.000000	-0.013414
774.000000	-0.013777
773.000000	-0.013491
772.000000	-0.012964
771.000000	-0.013530
770.000000	-0.013224
769.000000	-0.013977
768.000000	-0.014259
767.000000	-0.012270
766.000000	-0.013938
765.000000	-0.013940
764.000000	-0.013188
763.000000	-0.013474
762.000000	-0.013072
761.000000	-0.013453
760.000000	-0.013847
759.000000	-0.012913
758.000000	-0.013515
757.000000	-0.011838
756.000000	-0.013424
755.000000	-0.012870
754.000000	-0.012974
753.000000	-0.013692
752.000000	-0.013621
751.000000	-0.013301
750.000000	-0.013618
749.000000	-0.013336
748.000000	-0.013517
747.000000	-0.012773
746.000000	-0.013110
745.000000	-0.013519
744.000000	-0.013163
743.000000	-0.012844
742.000000	-0.012398
741.000000	-0.013127
740.000000	-0.013286
739.000000	-0.013534
738.000000	-0.013362
737.000000	-0.013665
736.000000	-0.013731
735.000000	-0.013031
734.000000	-0.013838
733.000000	-0.014327
732.000000	-0.013799
731.000000	-0.013195
730.000000	-0.014211
729.000000	-0.014879
728.000000	-0.013737
727.000000	-0.014280
726.000000	-0.014196
725.000000	-0.013202
724.000000	-0.013184
723.000000	-0.013729
722.000000	-0.013719
721.000000	-0.013960
720.000000	-0.013581
719.000000	-0.013749
718.000000	-0.013637
717.000000	-0.013571
716.000000	-0.013888
715.000000	-0.013724
714.000000	-0.013698
713.000000	-0.013230
712.000000	-0.012354
711.000000	-0.012772
710.000000	-0.013170
709.000000	-0.012834
708.000000	-0.012842
707.000000	-0.012528
706.000000	-0.010880
705.000000	-0.010745
704.000000	-0.010406
703.000000	-0.009131
702.000000	-0.008063
701.000000	-0.006746
700.000000	-0.005694
699.000000	-0.004820
698.000000	-0.003380
697.000000	-0.001128
696.000000	0.001398
695.000000	0.004192
694.000000	0.007512
693.000000	0.010949
692.000000	0.015249
691.000000	0.019556
690.000000	0.024042
689.000000	0.028999
688.000000	0.034248
687.000000	0.040234
686.000000	0.045217
685.000000	0.050599
684.000000	0.055822
683.000000	0.060555
682.000000	0.065315
681.000000	0.069296
680.000000	0.072764
679.000000	0.076167
678.000000	0.078972
677.000000	0.081216
676.000000	0.083092
675.000000	0.084388
674.000000	0.084701
673.000000	0.083852
672.000000	0.081981
671.000000	0.080069
670.000000	0.077163
669.000000	0.073942
668.000000	0.070306
667.000000	0.066049
666.000000	0.062053
665.000000	0.057826
664.000000	0.053323
663.000000	0.048761
662.000000	0.044608
661.000000	0.040718
660.000000	0.036586
659.000000	0.032744
658.000000	0.029386
657.000000	0.025886
656.000000	0.023276
655.000000	0.021477
654.000000	0.019031
653.000000	0.017385
652.000000	0.015979
651.000000	0.015003
650.000000	0.014274
649.000000	0.013637
648.000000	0.013426
647.000000	0.013468
646.000000	0.013615
645.000000	0.013728
644.000000	0.014302
643.000000	0.014759
642.000000	0.015023
641.000000	0.015703
640.000000	0.016349
639.000000	0.016812
638.000000	0.017412
637.000000	0.017717
636.000000	0.017741
635.000000	0.018038
634.000000	0.018392
633.000000	0.018831
632.000000	0.018367
631.000000	0.017738
630.000000	0.017610
629.000000	0.017538
628.000000	0.017623
627.000000	0.017319
626.000000	0.016863
625.000000	0.016611
624.000000	0.016737
623.000000	0.016464
622.000000	0.016163
621.000000	0.016249
620.000000	0.015823
619.000000	0.015548
618.000000	0.015016
617.000000	0.014696
616.000000	0.014058
615.000000	0.013523
614.000000	0.012818
613.000000	0.012095
612.000000	0.011284
611.000000	0.010640
610.000000	0.010162
609.000000	0.009066
608.000000	0.008432
607.000000	0.007962
606.000000	0.007589
605.000000	0.007369
604.000000	0.006499
603.000000	0.006684
602.000000	0.006883
601.000000	0.006556
600.000000	0.006768
599.000000	0.007127
598.000000	0.006927
597.000000	0.006849
596.000000	0.007635
595.000000	0.008651
594.000000	0.008679
593.000000	0.009275
592.000000	0.009482
591.000000	0.009469
590.000000	0.010376
589.000000	0.010951
588.000000	0.010453
587.000000	0.010267
586.000000	0.011332
585.000000	0.010950
584.000000	0.010469
583.000000	0.010854
582.000000	0.010833
581.000000	0.010685
580.000000	0.011086
579.000000	0.011107
578.000000	0.010645
577.000000	0.011296
576.000000	0.011223
575.000000	0.011358
574.000000	0.011752
573.000000	0.012247
572.000000	0.012714
571.000000	0.012749
570.000000	0.013020
569.000000	0.013382
568.000000	0.013757
567.000000	0.014837
566.000000	0.015686
565.000000	0.015825
564.000000	0.016667
563.000000	0.017072
562.000000	0.018930
561.000000	0.020174
560.000000	0.021017
559.000000	0.022072
558.000000	0.022705
557.000000	0.024241
556.000000	0.025232
555.000000	0.026120
554.000000	0.027691
553.000000	0.028416
552.000000	0.029714
551.000000	0.030684
550.000000	0.031731
549.000000	0.033226
548.000000	0.034257
547.000000	0.035615
546.000000	0.036896
545.000000	0.037760
544.000000	0.038499
543.000000	0.038979
542.000000	0.040225
541.000000	0.041000
540.000000	0.041751
539.000000	0.042211
538.000000	0.043576
537.000000	0.044160
536.000000	0.044972
535.000000	0.045868
534.000000	0.046046
533.000000	0.046506
532.000000	0.047497
531.000000	0.047845
530.000000	0.048144
529.000000	0.049217
528.000000	0.049664
527.000000	0.050399
526.000000	0.051052
525.000000	0.050952
524.000000	0.051940
523.000000	0.052372
522.000000	0.052652
521.000000	0.053514
520.000000	0.054563
519.000000	0.054971
518.000000	0.055947
517.000000	0.056793
516.000000	0.057499
515.000000	0.057841
514.000000	0.059316
513.000000	0.059812
512.000000	0.060884
511.000000	0.061851
510.000000	0.063323
509.000000	0.063812
508.000000	0.065337
507.000000	0.066639
506.000000	0.068198
505.000000	0.069354
504.000000	0.070982
503.000000	0.072161
502.000000	0.073830
501.000000	0.074821
500.000000	0.076243
499.000000	0.077433
498.000000	0.078758
497.000000	0.079127
496.000000	0.080633
495.000000	0.081690
494.000000	0.082487
493.000000	0.083166
492.000000	0.083850
491.000000	0.084306
490.000000	0.084456
489.000000	0.084425
488.000000	0.084897
487.000000	0.084816
486.000000	0.084737
485.000000	0.084835
484.000000	0.085050
483.000000	0.085467
482.000000	0.085411
481.000000	0.084965
480.000000	0.085239
479.000000	0.085531
478.000000	0.086333
477.000000	0.087280
476.000000	0.088495
475.000000	0.089964
474.000000	0.090807
473.000000	0.092381
472.000000	0.093866
471.000000	0.095453
470.000000	0.097147
469.000000	0.098957
468.000000	0.100455
467.000000	0.101202
466.000000	0.102642
465.000000	0.104504
464.000000	0.105674
463.000000	0.106267
462.000000	0.106842
461.000000	0.107341
460.000000	0.107901
459.000000	0.108128
458.000000	0.108849
457.000000	0.109125
456.000000	0.109587
455.000000	0.109562
454.000000	0.110027
453.000000	0.110801
452.000000	0.111310
451.000000	0.111947
450.000000	0.112908
449.000000	0.113818
448.000000	0.115665
447.000000	0.117220
446.000000	0.118565
445.000000	0.120066
444.000000	0.121367
443.000000	0.122896
442.000000	0.124042
441.000000	0.124856
440.000000	0.125365
439.000000	0.125729
438.000000	0.125957
437.000000	0.125727
436.000000	0.125545
435.000000	0.125178
434.000000	0.124263
433.000000	0.123659
432.000000	0.122921
431.000000	0.121393
430.000000	0.120290
429.000000	0.119669
428.000000	0.118795
427.000000	0.118088
426.000000	0.116837
425.000000	0.116062
424.000000	0.115442
423.000000	0.114498
422.000000	0.114030
421.000000	0.113225
420.000000	0.113072
419.000000	0.113059
418.000000	0.111969
417.000000	0.110528
416.000000	0.109795
415.000000	0.109405
414.000000	0.108729
413.000000	0.107781
412.000000	0.106227
411.000000	0.104646
410.000000	0.103050
409.000000	0.101564
408.000000	0.100094
407.000000	0.098094
406.000000	0.095858
405.000000	0.094155
404.000000	0.092578
403.000000	0.090647
402.000000	0.089732
401.000000	0.088944
400.000000	0.087666
399.000000	0.086480
398.000000	0.085304
397.000000	0.083800
396.000000	0.083539
395.000000	0.083577
394.000000	0.081876
393.000000	0.081019
392.000000	0.080529
391.000000	0.078883
390.000000	0.078029
389.000000	0.077421
388.000000	0.076274
387.000000	0.075943
386.000000	0.075681
385.000000	0.074730
384.000000	0.072807
383.000000	0.072734
382.000000	0.073169
381.000000	0.071425
380.000000	0.069575
379.000000	0.069465
378.000000	0.066845
377.000000	0.062824
376.000000	0.062732
375.000000	0.062203
374.000000	0.058677
373.000000	0.059726
372.000000	0.057978
371.000000	0.057288
370.000000	0.055297
369.000000	0.054844
368.000000	0.053769
367.000000	0.052372
366.000000	0.051617
365.000000	0.050005
364.000000	0.050966
363.000000	0.050688
362.000000	0.050732
361.000000	0.048416
360.000000	0.047603
359.000000	0.046350
358.000000	0.046323
357.000000	0.045033
356.000000	0.045144
355.000000	0.047522
354.000000	0.046649
353.000000	0.044105
352.000000	0.045813
351.000000	0.044482
350.000000	0.047265
349.000000	0.046713
348.000000	0.047866
347.000000	0.046905
346.000000	0.046521
345.000000	0.049512
344.000000	0.048610
343.000000	0.048067
342.000000	0.047978
341.000000	0.050445
340.000000	0.048572
339.000000	0.050340
338.000000	0.051537
337.000000	0.051105
336.000000	0.048692
335.000000	0.051722
334.000000	0.048123
333.000000	0.051658
332.000000	0.050529
331.000000	0.050505
330.000000	0.049777
329.000000	0.047526
328.000000	0.049046
327.000000	0.051302
326.000000	0.049586
325.000000	0.046814
324.000000	0.052765
323.000000	0.049929
322.000000	0.047457
321.000000	0.054195
320.000000	0.051460
319.000000	0.051885
318.000000	0.050609
317.000000	0.049198
316.000000	0.050514
315.000000	0.048937
314.000000	0.051190
313.000000	0.053255
312.000000	0.053592
311.000000	0.055563
310.000000	0.055978
309.000000	0.057952
308.000000	0.059037
307.000000	0.059059
306.000000	0.064080
305.000000	0.066751
304.000000	0.069413
303.000000	0.073365
302.000000	0.076014
301.000000	0.080096
300.000000	0.082894
