PE UV       SUBTECH     SPECTRUM    ASCII       PEDS        4.00        
   -1
PETIT_63.Sample.Raw.asc
20/12/16
09:38:16.00
20/12/16
09:38:16.00
CNRS
RCC9511_C_DM
300.000000
1
Lambda 850
850L1011221
PerkinElmer UV WinLab 6.0.3.0730 / 1.61.00 Lambda 800

0
0
2
0
0
UV/VIS
1
1
1
RBeamAtt,SBeamAtt,150mm sphere / downward view
0
0
0
0
Fix
 
0
0.2
0
0
0
 
 
 
0
 
0
319.2
0
Front
50
 
S:100 R:100
 
0
0
0
 
0
 
 
 
0
 
 
0
0
0
0
0
 
 
 
 
0
0


#HDR
-1
-1
#GR
nm
A
1.0
0.0
800.000000
-1.000000
501
8
0.313677
-0.014527
#DATA
800.000000	-0.011898
799.000000	-0.012112
798.000000	-0.013404
797.000000	-0.013151
796.000000	-0.011760
795.000000	-0.013052
794.000000	-0.012919
793.000000	-0.013419
792.000000	-0.012638
791.000000	-0.014256
790.000000	-0.013463
789.000000	-0.013322
788.000000	-0.013630
787.000000	-0.012557
786.000000	-0.014021
785.000000	-0.012184
784.000000	-0.012076
783.000000	-0.013349
782.000000	-0.012843
781.000000	-0.013387
780.000000	-0.011807
779.000000	-0.013126
778.000000	-0.012152
777.000000	-0.012051
776.000000	-0.012865
775.000000	-0.013442
774.000000	-0.012788
773.000000	-0.012499
772.000000	-0.012925
771.000000	-0.012711
770.000000	-0.013306
769.000000	-0.012523
768.000000	-0.014527
767.000000	-0.013276
766.000000	-0.013819
765.000000	-0.013042
764.000000	-0.012969
763.000000	-0.013512
762.000000	-0.013015
761.000000	-0.012875
760.000000	-0.013726
759.000000	-0.013107
758.000000	-0.012274
757.000000	-0.012226
756.000000	-0.013684
755.000000	-0.014091
754.000000	-0.013340
753.000000	-0.012872
752.000000	-0.013486
751.000000	-0.013729
750.000000	-0.013852
749.000000	-0.012814
748.000000	-0.013992
747.000000	-0.013186
746.000000	-0.012730
745.000000	-0.013090
744.000000	-0.013217
743.000000	-0.013705
742.000000	-0.012157
741.000000	-0.013333
740.000000	-0.013485
739.000000	-0.013835
738.000000	-0.012766
737.000000	-0.013393
736.000000	-0.013552
735.000000	-0.013133
734.000000	-0.014378
733.000000	-0.014106
732.000000	-0.013673
731.000000	-0.013803
730.000000	-0.014304
729.000000	-0.014112
728.000000	-0.013447
727.000000	-0.013870
726.000000	-0.014239
725.000000	-0.013567
724.000000	-0.013433
723.000000	-0.013119
722.000000	-0.013095
721.000000	-0.013507
720.000000	-0.014300
719.000000	-0.013452
718.000000	-0.013533
717.000000	-0.013602
716.000000	-0.013692
715.000000	-0.013474
714.000000	-0.013109
713.000000	-0.012530
712.000000	-0.011561
711.000000	-0.011176
710.000000	-0.011241
709.000000	-0.010781
708.000000	-0.010755
707.000000	-0.009628
706.000000	-0.008157
705.000000	-0.007553
704.000000	-0.006849
703.000000	-0.005115
702.000000	-0.003030
701.000000	-0.001643
700.000000	0.000829
699.000000	0.003320
698.000000	0.006082
697.000000	0.009348
696.000000	0.013493
695.000000	0.018920
694.000000	0.024515
693.000000	0.030285
692.000000	0.037667
691.000000	0.045063
690.000000	0.053012
689.000000	0.061652
688.000000	0.069875
687.000000	0.078914
686.000000	0.087641
685.000000	0.096246
684.000000	0.104125
683.000000	0.111291
682.000000	0.117448
681.000000	0.122355
680.000000	0.126655
679.000000	0.130618
678.000000	0.133558
677.000000	0.136425
676.000000	0.138797
675.000000	0.140352
674.000000	0.141399
673.000000	0.141086
672.000000	0.139883
671.000000	0.137796
670.000000	0.134206
669.000000	0.129964
668.000000	0.124547
667.000000	0.118073
666.000000	0.110721
665.000000	0.103096
664.000000	0.095379
663.000000	0.087427
662.000000	0.079683
661.000000	0.072930
660.000000	0.066573
659.000000	0.060789
658.000000	0.054960
657.000000	0.049449
656.000000	0.045418
655.000000	0.042291
654.000000	0.038918
653.000000	0.036396
652.000000	0.034460
651.000000	0.032561
650.000000	0.031097
649.000000	0.029903
648.000000	0.028673
647.000000	0.027521
646.000000	0.026937
645.000000	0.026378
644.000000	0.026272
643.000000	0.025924
642.000000	0.025607
641.000000	0.026037
640.000000	0.026412
639.000000	0.026729
638.000000	0.027048
637.000000	0.027619
636.000000	0.027925
635.000000	0.028320
634.000000	0.029185
633.000000	0.029564
632.000000	0.029854
631.000000	0.029385
630.000000	0.029351
629.000000	0.029739
628.000000	0.029305
627.000000	0.028326
626.000000	0.028087
625.000000	0.027168
624.000000	0.027296
623.000000	0.026584
622.000000	0.025849
621.000000	0.025748
620.000000	0.025049
619.000000	0.024693
618.000000	0.023936
617.000000	0.023503
616.000000	0.022320
615.000000	0.021211
614.000000	0.020538
613.000000	0.019782
612.000000	0.018757
611.000000	0.018105
610.000000	0.017737
609.000000	0.016164
608.000000	0.015939
607.000000	0.015142
606.000000	0.014412
605.000000	0.014098
604.000000	0.013223
603.000000	0.012973
602.000000	0.012880
601.000000	0.012160
600.000000	0.012017
599.000000	0.011777
598.000000	0.010967
597.000000	0.010534
596.000000	0.010552
595.000000	0.010546
594.000000	0.010942
593.000000	0.010607
592.000000	0.010194
591.000000	0.009940
590.000000	0.009813
589.000000	0.009430
588.000000	0.008830
587.000000	0.008327
586.000000	0.008286
585.000000	0.008065
584.000000	0.007846
583.000000	0.007728
582.000000	0.007510
581.000000	0.006591
580.000000	0.006120
579.000000	0.005995
578.000000	0.005575
577.000000	0.005781
576.000000	0.004986
575.000000	0.004665
574.000000	0.004300
573.000000	0.004120
572.000000	0.003950
571.000000	0.003730
570.000000	0.003221
569.000000	0.003052
568.000000	0.002952
567.000000	0.003049
566.000000	0.002994
565.000000	0.002795
564.000000	0.002949
563.000000	0.002797
562.000000	0.003318
561.000000	0.003700
560.000000	0.003968
559.000000	0.004176
558.000000	0.004186
557.000000	0.004987
556.000000	0.004917
555.000000	0.004828
554.000000	0.005646
553.000000	0.006310
552.000000	0.006308
551.000000	0.006727
550.000000	0.007314
549.000000	0.008037
548.000000	0.008420
547.000000	0.009336
546.000000	0.009822
545.000000	0.010301
544.000000	0.011291
543.000000	0.011515
542.000000	0.012670
541.000000	0.013079
540.000000	0.013770
539.000000	0.014013
538.000000	0.015230
537.000000	0.016454
536.000000	0.017346
535.000000	0.018832
534.000000	0.019746
533.000000	0.020781
532.000000	0.022541
531.000000	0.024278
530.000000	0.025516
529.000000	0.027586
528.000000	0.029607
527.000000	0.032162
526.000000	0.034802
525.000000	0.037096
524.000000	0.039763
523.000000	0.043713
522.000000	0.046632
521.000000	0.050962
520.000000	0.054635
519.000000	0.059100
518.000000	0.064066
517.000000	0.069551
516.000000	0.074516
515.000000	0.079709
514.000000	0.085604
513.000000	0.091088
512.000000	0.096808
511.000000	0.103231
510.000000	0.109727
509.000000	0.115666
508.000000	0.121708
507.000000	0.128054
506.000000	0.133580
505.000000	0.139939
504.000000	0.146037
503.000000	0.151421
502.000000	0.156898
501.000000	0.161839
500.000000	0.166506
499.000000	0.171087
498.000000	0.174401
497.000000	0.177764
496.000000	0.180546
495.000000	0.184110
494.000000	0.186377
493.000000	0.188378
492.000000	0.190367
491.000000	0.192202
490.000000	0.193274
489.000000	0.194374
488.000000	0.195298
487.000000	0.196627
486.000000	0.197243
485.000000	0.198301
484.000000	0.199216
483.000000	0.199455
482.000000	0.200371
481.000000	0.200801
480.000000	0.201731
479.000000	0.202628
478.000000	0.204236
477.000000	0.206094
476.000000	0.208212
475.000000	0.210194
474.000000	0.212775
473.000000	0.215370
472.000000	0.218022
471.000000	0.221577
470.000000	0.225261
469.000000	0.228335
468.000000	0.232027
467.000000	0.235635
466.000000	0.239536
465.000000	0.244613
464.000000	0.249179
463.000000	0.253474
462.000000	0.257959
461.000000	0.262640
460.000000	0.267324
459.000000	0.272537
458.000000	0.277176
457.000000	0.281213
456.000000	0.285446
455.000000	0.289385
454.000000	0.292923
453.000000	0.297066
452.000000	0.300077
451.000000	0.303004
450.000000	0.305713
449.000000	0.308296
448.000000	0.310478
447.000000	0.311858
446.000000	0.312958
445.000000	0.313659
444.000000	0.313677
443.000000	0.312974
442.000000	0.311787
441.000000	0.310372
440.000000	0.308576
439.000000	0.306618
438.000000	0.304376
437.000000	0.302660
436.000000	0.300787
435.000000	0.298494
434.000000	0.296716
433.000000	0.295395
432.000000	0.293487
431.000000	0.291954
430.000000	0.290637
429.000000	0.289678
428.000000	0.287986
427.000000	0.286322
426.000000	0.284846
425.000000	0.283065
424.000000	0.280789
423.000000	0.278798
422.000000	0.276845
421.000000	0.274314
420.000000	0.272215
419.000000	0.269766
418.000000	0.266424
417.000000	0.263561
416.000000	0.260835
415.000000	0.257835
414.000000	0.255904
413.000000	0.253603
412.000000	0.250665
411.000000	0.248247
410.000000	0.245223
409.000000	0.242966
408.000000	0.241328
407.000000	0.239678
406.000000	0.238042
405.000000	0.236367
404.000000	0.234894
403.000000	0.233937
402.000000	0.233461
401.000000	0.234262
400.000000	0.234789
399.000000	0.233892
398.000000	0.233079
397.000000	0.232839
396.000000	0.233097
395.000000	0.233508
394.000000	0.234145
393.000000	0.234356
392.000000	0.233822
391.000000	0.232880
390.000000	0.231730
389.000000	0.230080
388.000000	0.228850
387.000000	0.226223
386.000000	0.223369
385.000000	0.219407
384.000000	0.215734
383.000000	0.212603
382.000000	0.208248
381.000000	0.202709
380.000000	0.196507
379.000000	0.193105
378.000000	0.184734
377.000000	0.175353
376.000000	0.170591
375.000000	0.165784
374.000000	0.158600
373.000000	0.153778
372.000000	0.150354
371.000000	0.146058
370.000000	0.141703
369.000000	0.139137
368.000000	0.135341
367.000000	0.132442
366.000000	0.129262
365.000000	0.125242
364.000000	0.123119
363.000000	0.123035
362.000000	0.121565
361.000000	0.117312
360.000000	0.114495
359.000000	0.113474
358.000000	0.110770
357.000000	0.109693
356.000000	0.108989
355.000000	0.109890
354.000000	0.109451
353.000000	0.107669
352.000000	0.108934
351.000000	0.104574
350.000000	0.106498
349.000000	0.107166
348.000000	0.107095
347.000000	0.107958
346.000000	0.107721
345.000000	0.106959
344.000000	0.106016
343.000000	0.107062
342.000000	0.106861
341.000000	0.106896
340.000000	0.106270
339.000000	0.106719
338.000000	0.106626
337.000000	0.104741
336.000000	0.101704
335.000000	0.102455
334.000000	0.099165
333.000000	0.101080
332.000000	0.100966
331.000000	0.098325
330.000000	0.099032
329.000000	0.098555
328.000000	0.097661
327.000000	0.098398
326.000000	0.098574
325.000000	0.095923
324.000000	0.098694
323.000000	0.096691
322.000000	0.099002
321.000000	0.100733
320.000000	0.099628
319.000000	0.103735
318.000000	0.098004
317.000000	0.100418
316.000000	0.099366
315.000000	0.101672
314.000000	0.102212
313.000000	0.105576
312.000000	0.105353
311.000000	0.108549
310.000000	0.109839
309.000000	0.112029
308.000000	0.114891
307.000000	0.114781
306.000000	0.120518
305.000000	0.122356
304.000000	0.125697
303.000000	0.134199
302.000000	0.137643
301.000000	0.144032
300.000000	0.150235
