PE UV       SUBTECH     SPECTRUM    ASCII       PEDS        4.00        
   -1
PETIT_65.Sample.Raw.asc
20/12/16
09:45:35.00
20/12/16
09:45:35.00
CNRS
RCC2319_B_DM
300.000000
1
Lambda 850
850L1011221
PerkinElmer UV WinLab 6.0.3.0730 / 1.61.00 Lambda 800

0
0
2
0
0
UV/VIS
1
1
1
RBeamAtt,SBeamAtt,150mm sphere / downward view
0
0
0
0
Fix
 
0
0.2
0
0
0
 
 
 
0
 
0
319.2
0
Front
50
 
S:100 R:100
 
0
0
0
 
0
 
 
 
0
 
 
0
0
0
0
0
 
 
 
 
0
0


#HDR
-1
-1
#GR
nm
A
1.0
0.0
800.000000
-1.000000
501
8
0.205487
-0.012897
#DATA
800.000000	-0.012422
799.000000	-0.012748
798.000000	-0.011216
797.000000	-0.010962
796.000000	-0.010067
795.000000	-0.011377
794.000000	-0.012144
793.000000	-0.011722
792.000000	-0.011557
791.000000	-0.011576
790.000000	-0.011254
789.000000	-0.011945
788.000000	-0.011963
787.000000	-0.011064
786.000000	-0.011800
785.000000	-0.012165
784.000000	-0.010837
783.000000	-0.011719
782.000000	-0.011781
781.000000	-0.012834
780.000000	-0.011992
779.000000	-0.012094
778.000000	-0.011926
777.000000	-0.010741
776.000000	-0.011444
775.000000	-0.011653
774.000000	-0.012452
773.000000	-0.010808
772.000000	-0.011607
771.000000	-0.011061
770.000000	-0.011531
769.000000	-0.010971
768.000000	-0.012198
767.000000	-0.011334
766.000000	-0.012242
765.000000	-0.011833
764.000000	-0.011474
763.000000	-0.011271
762.000000	-0.010743
761.000000	-0.011157
760.000000	-0.010962
759.000000	-0.011539
758.000000	-0.011857
757.000000	-0.010268
756.000000	-0.011660
755.000000	-0.011860
754.000000	-0.011915
753.000000	-0.011883
752.000000	-0.012286
751.000000	-0.011037
750.000000	-0.011957
749.000000	-0.011468
748.000000	-0.011746
747.000000	-0.011449
746.000000	-0.011569
745.000000	-0.011666
744.000000	-0.011948
743.000000	-0.011789
742.000000	-0.010897
741.000000	-0.011869
740.000000	-0.012117
739.000000	-0.012052
738.000000	-0.011848
737.000000	-0.011929
736.000000	-0.012299
735.000000	-0.012006
734.000000	-0.012698
733.000000	-0.012457
732.000000	-0.011855
731.000000	-0.011720
730.000000	-0.012053
729.000000	-0.012897
728.000000	-0.011694
727.000000	-0.011492
726.000000	-0.011928
725.000000	-0.011927
724.000000	-0.011170
723.000000	-0.011925
722.000000	-0.012505
721.000000	-0.012322
720.000000	-0.011931
719.000000	-0.011488
718.000000	-0.011353
717.000000	-0.011042
716.000000	-0.011303
715.000000	-0.011456
714.000000	-0.010581
713.000000	-0.010143
712.000000	-0.009516
711.000000	-0.009856
710.000000	-0.009222
709.000000	-0.008208
708.000000	-0.008210
707.000000	-0.007421
706.000000	-0.005366
705.000000	-0.004710
704.000000	-0.003313
703.000000	-0.001679
702.000000	0.000140
701.000000	0.002225
700.000000	0.004817
699.000000	0.007296
698.000000	0.009933
697.000000	0.013771
696.000000	0.017733
695.000000	0.022152
694.000000	0.027228
693.000000	0.032737
692.000000	0.038605
691.000000	0.044680
690.000000	0.051425
689.000000	0.058409
688.000000	0.065363
687.000000	0.072790
686.000000	0.079595
685.000000	0.086261
684.000000	0.092169
683.000000	0.097459
682.000000	0.101868
681.000000	0.104697
680.000000	0.106545
679.000000	0.107312
678.000000	0.107086
677.000000	0.106521
676.000000	0.105278
675.000000	0.104135
674.000000	0.102579
673.000000	0.100099
672.000000	0.097265
671.000000	0.093820
670.000000	0.089680
669.000000	0.085337
668.000000	0.080582
667.000000	0.075502
666.000000	0.070542
665.000000	0.065116
664.000000	0.059748
663.000000	0.054283
662.000000	0.049372
661.000000	0.045116
660.000000	0.040549
659.000000	0.036290
658.000000	0.032648
657.000000	0.029493
656.000000	0.027003
655.000000	0.025661
654.000000	0.023736
653.000000	0.022571
652.000000	0.021827
651.000000	0.020377
650.000000	0.019663
649.000000	0.019701
648.000000	0.019731
647.000000	0.019767
646.000000	0.020072
645.000000	0.020074
644.000000	0.020793
643.000000	0.021634
642.000000	0.021851
641.000000	0.022766
640.000000	0.023429
639.000000	0.024034
638.000000	0.024511
637.000000	0.025159
636.000000	0.025200
635.000000	0.025498
634.000000	0.026157
633.000000	0.026831
632.000000	0.027114
631.000000	0.026711
630.000000	0.027005
629.000000	0.027173
628.000000	0.026644
627.000000	0.026349
626.000000	0.025988
625.000000	0.025792
624.000000	0.025640
623.000000	0.025317
622.000000	0.024669
621.000000	0.024828
620.000000	0.024065
619.000000	0.023216
618.000000	0.022204
617.000000	0.021955
616.000000	0.021370
615.000000	0.020573
614.000000	0.019526
613.000000	0.018534
612.000000	0.017846
611.000000	0.017215
610.000000	0.016874
609.000000	0.015473
608.000000	0.014978
607.000000	0.014393
606.000000	0.014197
605.000000	0.013552
604.000000	0.012717
603.000000	0.012687
602.000000	0.012804
601.000000	0.012735
600.000000	0.012097
599.000000	0.012397
598.000000	0.011723
597.000000	0.011317
596.000000	0.011680
595.000000	0.011908
594.000000	0.012267
593.000000	0.012205
592.000000	0.011843
591.000000	0.012235
590.000000	0.012630
589.000000	0.012467
588.000000	0.012209
587.000000	0.012012
586.000000	0.012308
585.000000	0.011967
584.000000	0.011963
583.000000	0.012413
582.000000	0.012704
581.000000	0.012532
580.000000	0.013250
579.000000	0.013763
578.000000	0.014244
577.000000	0.015727
576.000000	0.016033
575.000000	0.017241
574.000000	0.018872
573.000000	0.020325
572.000000	0.021633
571.000000	0.023316
570.000000	0.024680
569.000000	0.026591
568.000000	0.028125
567.000000	0.030555
566.000000	0.031815
565.000000	0.033630
564.000000	0.035821
563.000000	0.037307
562.000000	0.039606
561.000000	0.042506
560.000000	0.044582
559.000000	0.046996
558.000000	0.049376
557.000000	0.052372
556.000000	0.054495
555.000000	0.056435
554.000000	0.058919
553.000000	0.060571
552.000000	0.062086
551.000000	0.063176
550.000000	0.063905
549.000000	0.064857
548.000000	0.065546
547.000000	0.065961
546.000000	0.066143
545.000000	0.065789
544.000000	0.066297
543.000000	0.065944
542.000000	0.065765
541.000000	0.065013
540.000000	0.064615
539.000000	0.064225
538.000000	0.063973
537.000000	0.064316
536.000000	0.063592
535.000000	0.063432
534.000000	0.062719
533.000000	0.062060
532.000000	0.062285
531.000000	0.062251
530.000000	0.061466
529.000000	0.061887
528.000000	0.062353
527.000000	0.062668
526.000000	0.062924
525.000000	0.063124
524.000000	0.063904
523.000000	0.064891
522.000000	0.065661
521.000000	0.067205
520.000000	0.068348
519.000000	0.069983
518.000000	0.071715
517.000000	0.074503
516.000000	0.076341
515.000000	0.078937
514.000000	0.081649
513.000000	0.084461
512.000000	0.087690
511.000000	0.090783
510.000000	0.094390
509.000000	0.097377
508.000000	0.100871
507.000000	0.105030
506.000000	0.108217
505.000000	0.112493
504.000000	0.116331
503.000000	0.120369
502.000000	0.123755
501.000000	0.127210
500.000000	0.129988
499.000000	0.133023
498.000000	0.135105
497.000000	0.136754
496.000000	0.137859
495.000000	0.139463
494.000000	0.140370
493.000000	0.140470
492.000000	0.140379
491.000000	0.140507
490.000000	0.139742
489.000000	0.139360
488.000000	0.138380
487.000000	0.137275
486.000000	0.136092
485.000000	0.134494
484.000000	0.133495
483.000000	0.132497
482.000000	0.131624
481.000000	0.130288
480.000000	0.130034
479.000000	0.129565
478.000000	0.129606
477.000000	0.129950
476.000000	0.130904
475.000000	0.131480
474.000000	0.131758
473.000000	0.132548
472.000000	0.134021
471.000000	0.135644
470.000000	0.136434
469.000000	0.137545
468.000000	0.138517
467.000000	0.139415
466.000000	0.140436
465.000000	0.141566
464.000000	0.142408
463.000000	0.142714
462.000000	0.142469
461.000000	0.142969
460.000000	0.143820
459.000000	0.144346
458.000000	0.145120
457.000000	0.145737
456.000000	0.147036
455.000000	0.148554
454.000000	0.150559
453.000000	0.153278
452.000000	0.156309
451.000000	0.160079
450.000000	0.164820
449.000000	0.169562
448.000000	0.174686
447.000000	0.179762
446.000000	0.184394
445.000000	0.189071
444.000000	0.193663
443.000000	0.197207
442.000000	0.200440
441.000000	0.203311
440.000000	0.204461
439.000000	0.205419
438.000000	0.205487
437.000000	0.205017
436.000000	0.203918
435.000000	0.202409
434.000000	0.200996
433.000000	0.199099
432.000000	0.196448
431.000000	0.194236
430.000000	0.192225
429.000000	0.189582
428.000000	0.187613
427.000000	0.186459
426.000000	0.184533
425.000000	0.182678
424.000000	0.182038
423.000000	0.181513
422.000000	0.180667
421.000000	0.179727
420.000000	0.179082
419.000000	0.178165
418.000000	0.176804
417.000000	0.175453
416.000000	0.173764
415.000000	0.171862
414.000000	0.169480
413.000000	0.167055
412.000000	0.164637
411.000000	0.161881
410.000000	0.158002
409.000000	0.154166
408.000000	0.151001
407.000000	0.147817
406.000000	0.144623
405.000000	0.140953
404.000000	0.137960
403.000000	0.135442
402.000000	0.132946
401.000000	0.131051
400.000000	0.129328
399.000000	0.127967
398.000000	0.126634
397.000000	0.124638
396.000000	0.123163
395.000000	0.122342
394.000000	0.120665
393.000000	0.119558
392.000000	0.119121
391.000000	0.117713
390.000000	0.116682
389.000000	0.115321
388.000000	0.113693
387.000000	0.112507
386.000000	0.111531
385.000000	0.109631
384.000000	0.108221
383.000000	0.107710
382.000000	0.107072
381.000000	0.104953
380.000000	0.101996
379.000000	0.101818
378.000000	0.100524
377.000000	0.095619
376.000000	0.093693
375.000000	0.090152
374.000000	0.087304
373.000000	0.087511
372.000000	0.085590
371.000000	0.083275
370.000000	0.080829
369.000000	0.080623
368.000000	0.079579
367.000000	0.077672
366.000000	0.076730
365.000000	0.075379
364.000000	0.076555
363.000000	0.076028
362.000000	0.075483
361.000000	0.073424
360.000000	0.072188
359.000000	0.068047
358.000000	0.068059
357.000000	0.070515
356.000000	0.069202
355.000000	0.070332
354.000000	0.070200
353.000000	0.067687
352.000000	0.069551
351.000000	0.068075
350.000000	0.068237
349.000000	0.069312
348.000000	0.069591
347.000000	0.068890
346.000000	0.071376
345.000000	0.073775
344.000000	0.072920
343.000000	0.072580
342.000000	0.071774
341.000000	0.072952
340.000000	0.073430
339.000000	0.073558
338.000000	0.075631
337.000000	0.074142
336.000000	0.070701
335.000000	0.073490
334.000000	0.070616
333.000000	0.072029
332.000000	0.071345
331.000000	0.071731
330.000000	0.068891
329.000000	0.066609
328.000000	0.065820
327.000000	0.066951
326.000000	0.067315
325.000000	0.066306
324.000000	0.070160
323.000000	0.068390
322.000000	0.064796
321.000000	0.070555
320.000000	0.068359
319.000000	0.068115
318.000000	0.070149
317.000000	0.069696
316.000000	0.072032
315.000000	0.072082
314.000000	0.073441
313.000000	0.075997
312.000000	0.076262
311.000000	0.080627
310.000000	0.083008
309.000000	0.085931
308.000000	0.088955
307.000000	0.089246
306.000000	0.095634
305.000000	0.101058
304.000000	0.104514
303.000000	0.112884
302.000000	0.119023
301.000000	0.124318
300.000000	0.132737
