PE UV       SUBTECH     SPECTRUM    ASCII       PEDS        4.00        
   -1
PETIT_62.Sample.Raw.asc
20/12/16
09:34:44.00
20/12/16
09:34:44.00
CNRS
RCC0076_C_D2
300.000000
1
Lambda 850
850L1011221
PerkinElmer UV WinLab 6.0.3.0730 / 1.61.00 Lambda 800

0
0
2
0
0
UV/VIS
1
1
1
RBeamAtt,SBeamAtt,150mm sphere / downward view
0
0
0
0
Fix
 
0
0.2
0
0
0
 
 
 
0
 
0
319.2
0
Front
50
 
S:100 R:100
 
0
0
0
 
0
 
 
 
0
 
 
0
0
0
0
0
 
 
 
 
0
0


#HDR
-1
-1
#GR
nm
A
1.0
0.0
800.000000
-1.000000
501
8
0.133380
-0.014893
#DATA
800.000000	-0.013558
799.000000	-0.014214
798.000000	-0.013911
797.000000	-0.013754
796.000000	-0.013014
795.000000	-0.014790
794.000000	-0.012774
793.000000	-0.014386
792.000000	-0.013237
791.000000	-0.014893
790.000000	-0.011821
789.000000	-0.014752
788.000000	-0.013669
787.000000	-0.012690
786.000000	-0.013264
785.000000	-0.013074
784.000000	-0.012477
783.000000	-0.012214
782.000000	-0.013276
781.000000	-0.013830
780.000000	-0.013106
779.000000	-0.013158
778.000000	-0.013050
777.000000	-0.012492
776.000000	-0.012201
775.000000	-0.012638
774.000000	-0.013335
773.000000	-0.013427
772.000000	-0.012653
771.000000	-0.012584
770.000000	-0.013403
769.000000	-0.012197
768.000000	-0.013974
767.000000	-0.011765
766.000000	-0.014124
765.000000	-0.013243
764.000000	-0.013838
763.000000	-0.013187
762.000000	-0.012787
761.000000	-0.013250
760.000000	-0.013111
759.000000	-0.012294
758.000000	-0.012146
757.000000	-0.011768
756.000000	-0.012821
755.000000	-0.013198
754.000000	-0.013495
753.000000	-0.013539
752.000000	-0.013752
751.000000	-0.013070
750.000000	-0.012866
749.000000	-0.013585
748.000000	-0.013554
747.000000	-0.013530
746.000000	-0.012605
745.000000	-0.013723
744.000000	-0.013209
743.000000	-0.014036
742.000000	-0.013207
741.000000	-0.012935
740.000000	-0.013604
739.000000	-0.013698
738.000000	-0.012991
737.000000	-0.012960
736.000000	-0.013038
735.000000	-0.012953
734.000000	-0.014368
733.000000	-0.014209
732.000000	-0.013249
731.000000	-0.013196
730.000000	-0.014007
729.000000	-0.014238
728.000000	-0.013583
727.000000	-0.013658
726.000000	-0.013925
725.000000	-0.012955
724.000000	-0.013046
723.000000	-0.014177
722.000000	-0.013338
721.000000	-0.013649
720.000000	-0.013807
719.000000	-0.013219
718.000000	-0.012737
717.000000	-0.012994
716.000000	-0.012772
715.000000	-0.012986
714.000000	-0.012169
713.000000	-0.011722
712.000000	-0.011790
711.000000	-0.011560
710.000000	-0.011539
709.000000	-0.010771
708.000000	-0.010690
707.000000	-0.010568
706.000000	-0.009014
705.000000	-0.008416
704.000000	-0.007844
703.000000	-0.006265
702.000000	-0.005245
701.000000	-0.003430
700.000000	-0.001708
699.000000	-0.000663
698.000000	0.001538
697.000000	0.003783
696.000000	0.006449
695.000000	0.009604
694.000000	0.012824
693.000000	0.016339
692.000000	0.020184
691.000000	0.024385
690.000000	0.028357
689.000000	0.032025
688.000000	0.035301
687.000000	0.038975
686.000000	0.042337
685.000000	0.045138
684.000000	0.047338
683.000000	0.049050
682.000000	0.050668
681.000000	0.052394
680.000000	0.053678
679.000000	0.054563
678.000000	0.055606
677.000000	0.056401
676.000000	0.057419
675.000000	0.057843
674.000000	0.058174
673.000000	0.058506
672.000000	0.057609
671.000000	0.056520
670.000000	0.055374
669.000000	0.053867
668.000000	0.051614
667.000000	0.049339
666.000000	0.047214
665.000000	0.045079
664.000000	0.042469
663.000000	0.039407
662.000000	0.036565
661.000000	0.033885
660.000000	0.031338
659.000000	0.028336
658.000000	0.025292
657.000000	0.022758
656.000000	0.020651
655.000000	0.018807
654.000000	0.017095
653.000000	0.015502
652.000000	0.013962
651.000000	0.012511
650.000000	0.011624
649.000000	0.011306
648.000000	0.011105
647.000000	0.010825
646.000000	0.010708
645.000000	0.010614
644.000000	0.010841
643.000000	0.011017
642.000000	0.011441
641.000000	0.012131
640.000000	0.012705
639.000000	0.012839
638.000000	0.013415
637.000000	0.013785
636.000000	0.013644
635.000000	0.014140
634.000000	0.014609
633.000000	0.015037
632.000000	0.014759
631.000000	0.014199
630.000000	0.014258
629.000000	0.014193
628.000000	0.013945
627.000000	0.013930
626.000000	0.013987
625.000000	0.013485
624.000000	0.013906
623.000000	0.013452
622.000000	0.012867
621.000000	0.013224
620.000000	0.013344
619.000000	0.012885
618.000000	0.012430
617.000000	0.012537
616.000000	0.011447
615.000000	0.011135
614.000000	0.010638
613.000000	0.009904
612.000000	0.008852
611.000000	0.008554
610.000000	0.008001
609.000000	0.006698
608.000000	0.006558
607.000000	0.006392
606.000000	0.005896
605.000000	0.005714
604.000000	0.004895
603.000000	0.005173
602.000000	0.004918
601.000000	0.004866
600.000000	0.004317
599.000000	0.004490
598.000000	0.004120
597.000000	0.004343
596.000000	0.004518
595.000000	0.004551
594.000000	0.005155
593.000000	0.005535
592.000000	0.005167
591.000000	0.005635
590.000000	0.006148
589.000000	0.006161
588.000000	0.006157
587.000000	0.005940
586.000000	0.006425
585.000000	0.006490
584.000000	0.005805
583.000000	0.006160
582.000000	0.006372
581.000000	0.006179
580.000000	0.006001
579.000000	0.005853
578.000000	0.005712
577.000000	0.006311
576.000000	0.006076
575.000000	0.005610
574.000000	0.006087
573.000000	0.005776
572.000000	0.006320
571.000000	0.006044
570.000000	0.006254
569.000000	0.006318
568.000000	0.006255
567.000000	0.006968
566.000000	0.007178
565.000000	0.007555
564.000000	0.007999
563.000000	0.007934
562.000000	0.008417
561.000000	0.009379
560.000000	0.010046
559.000000	0.010621
558.000000	0.011026
557.000000	0.012478
556.000000	0.012805
555.000000	0.012771
554.000000	0.014013
553.000000	0.014691
552.000000	0.015079
551.000000	0.016201
550.000000	0.016556
549.000000	0.017541
548.000000	0.017727
547.000000	0.018975
546.000000	0.019999
545.000000	0.020277
544.000000	0.021161
543.000000	0.021269
542.000000	0.022050
541.000000	0.022115
540.000000	0.022897
539.000000	0.023331
538.000000	0.024316
537.000000	0.024816
536.000000	0.025294
535.000000	0.025958
534.000000	0.026051
533.000000	0.026515
532.000000	0.027507
531.000000	0.027969
530.000000	0.027566
529.000000	0.028434
528.000000	0.029201
527.000000	0.029388
526.000000	0.030146
525.000000	0.030418
524.000000	0.030654
523.000000	0.031131
522.000000	0.031382
521.000000	0.032023
520.000000	0.032817
519.000000	0.033121
518.000000	0.034248
517.000000	0.034827
516.000000	0.035568
515.000000	0.035948
514.000000	0.036975
513.000000	0.037638
512.000000	0.038186
511.000000	0.038941
510.000000	0.040128
509.000000	0.040438
508.000000	0.041444
507.000000	0.042815
506.000000	0.043430
505.000000	0.044735
504.000000	0.045758
503.000000	0.046813
502.000000	0.048069
501.000000	0.048285
500.000000	0.049805
499.000000	0.051009
498.000000	0.051334
497.000000	0.051980
496.000000	0.052759
495.000000	0.053791
494.000000	0.054241
493.000000	0.054356
492.000000	0.055130
491.000000	0.055918
490.000000	0.055397
489.000000	0.055497
488.000000	0.055728
487.000000	0.056135
486.000000	0.055614
485.000000	0.055563
484.000000	0.055887
483.000000	0.055556
482.000000	0.055494
481.000000	0.055001
480.000000	0.055270
479.000000	0.055318
478.000000	0.055784
477.000000	0.056008
476.000000	0.056897
475.000000	0.057457
474.000000	0.057868
473.000000	0.058484
472.000000	0.059454
471.000000	0.060906
470.000000	0.061504
469.000000	0.062446
468.000000	0.063390
467.000000	0.064461
466.000000	0.065504
465.000000	0.066613
464.000000	0.067313
463.000000	0.067750
462.000000	0.068395
461.000000	0.068804
460.000000	0.069931
459.000000	0.070612
458.000000	0.071207
457.000000	0.071621
456.000000	0.072133
455.000000	0.072852
454.000000	0.073517
453.000000	0.074604
452.000000	0.074991
451.000000	0.076071
450.000000	0.077203
449.000000	0.078264
448.000000	0.079825
447.000000	0.080784
446.000000	0.081750
445.000000	0.083119
444.000000	0.084189
443.000000	0.085526
442.000000	0.086223
441.000000	0.086236
440.000000	0.086917
439.000000	0.087754
438.000000	0.087375
437.000000	0.087656
436.000000	0.087305
435.000000	0.086782
434.000000	0.086850
433.000000	0.086828
432.000000	0.086294
431.000000	0.085886
430.000000	0.086055
429.000000	0.085849
428.000000	0.085427
427.000000	0.085272
426.000000	0.085156
425.000000	0.084969
424.000000	0.084435
423.000000	0.084169
422.000000	0.084619
421.000000	0.084632
420.000000	0.084613
419.000000	0.084605
418.000000	0.084711
417.000000	0.084881
416.000000	0.084545
415.000000	0.084552
414.000000	0.084306
413.000000	0.083768
412.000000	0.083288
411.000000	0.082821
410.000000	0.082335
409.000000	0.081316
408.000000	0.080558
407.000000	0.080192
406.000000	0.079196
405.000000	0.077945
404.000000	0.077399
403.000000	0.076849
402.000000	0.076702
401.000000	0.076837
400.000000	0.076231
399.000000	0.075752
398.000000	0.075714
397.000000	0.074949
396.000000	0.075231
395.000000	0.075319
394.000000	0.074563
393.000000	0.074471
392.000000	0.075082
391.000000	0.074986
390.000000	0.074661
389.000000	0.075106
388.000000	0.074919
387.000000	0.074556
386.000000	0.075361
385.000000	0.075005
384.000000	0.074424
383.000000	0.075322
382.000000	0.076527
381.000000	0.075714
380.000000	0.074514
379.000000	0.075987
378.000000	0.074060
377.000000	0.071184
376.000000	0.070769
375.000000	0.071320
374.000000	0.070198
373.000000	0.071572
372.000000	0.072087
371.000000	0.071364
370.000000	0.070018
369.000000	0.069590
368.000000	0.069399
367.000000	0.070293
366.000000	0.070978
365.000000	0.068996
364.000000	0.072387
363.000000	0.074694
362.000000	0.075572
361.000000	0.073813
360.000000	0.072738
359.000000	0.072032
358.000000	0.073261
357.000000	0.072628
356.000000	0.072901
355.000000	0.074674
354.000000	0.074991
353.000000	0.076457
352.000000	0.079923
351.000000	0.078439
350.000000	0.079652
349.000000	0.077954
348.000000	0.080513
347.000000	0.079748
346.000000	0.081549
345.000000	0.081192
344.000000	0.084503
343.000000	0.081803
342.000000	0.083859
341.000000	0.085603
340.000000	0.084807
339.000000	0.086174
338.000000	0.089412
337.000000	0.087398
336.000000	0.087120
335.000000	0.090293
334.000000	0.088245
333.000000	0.087964
332.000000	0.090824
331.000000	0.092535
330.000000	0.091069
329.000000	0.090564
328.000000	0.094163
327.000000	0.098685
326.000000	0.092878
325.000000	0.092543
324.000000	0.099395
323.000000	0.097390
322.000000	0.097237
321.000000	0.098790
320.000000	0.101446
319.000000	0.099753
318.000000	0.096993
317.000000	0.097449
316.000000	0.099141
315.000000	0.100614
314.000000	0.102087
313.000000	0.104358
312.000000	0.103434
311.000000	0.107286
310.000000	0.107292
309.000000	0.110217
308.000000	0.111643
307.000000	0.113965
306.000000	0.115651
305.000000	0.119724
304.000000	0.121448
303.000000	0.124321
302.000000	0.127603
301.000000	0.130814
300.000000	0.133380
