PE UV       SUBTECH     SPECTRUM    ASCII       PEDS        4.00        
   -1
PETIT_89.Sample.Raw.asc
20/12/16
12:07:18.00
20/12/16
12:07:18.00
CNRS
RCC2319_C_D2
300.000000
1
Lambda 850
850L1011221
PerkinElmer UV WinLab 6.0.3.0730 / 1.61.00 Lambda 800

0
0
2
0
0
UV/VIS
1
1
1
RBeamAtt,SBeamAtt,150mm sphere / downward view
0
0
0
0
Fix
 
0
0.2
0
0
0
 
 
 
0
 
0
319.2
0
Front
50
 
S:100 R:100
 
0
0
0
 
0
 
 
 
0
 
 
0
0
0
0
0
 
 
 
 
0
0


#HDR
-1
-1
#GR
nm
A
1.0
0.0
800.000000
-1.000000
501
8
0.272465
-0.013871
#DATA
800.000000	-0.012487
799.000000	-0.011965
798.000000	-0.013027
797.000000	-0.011995
796.000000	-0.012198
795.000000	-0.013149
794.000000	-0.012678
793.000000	-0.013374
792.000000	-0.012755
791.000000	-0.013246
790.000000	-0.013725
789.000000	-0.013037
788.000000	-0.012224
787.000000	-0.011992
786.000000	-0.012660
785.000000	-0.013773
784.000000	-0.011775
783.000000	-0.013102
782.000000	-0.013871
781.000000	-0.013713
780.000000	-0.012349
779.000000	-0.013114
778.000000	-0.012231
777.000000	-0.012122
776.000000	-0.012331
775.000000	-0.011996
774.000000	-0.012373
773.000000	-0.012937
772.000000	-0.012271
771.000000	-0.012282
770.000000	-0.012740
769.000000	-0.012500
768.000000	-0.013102
767.000000	-0.012226
766.000000	-0.012085
765.000000	-0.013266
764.000000	-0.012910
763.000000	-0.012865
762.000000	-0.012249
761.000000	-0.013204
760.000000	-0.013086
759.000000	-0.012162
758.000000	-0.012051
757.000000	-0.012367
756.000000	-0.011816
755.000000	-0.012436
754.000000	-0.012096
753.000000	-0.012630
752.000000	-0.012568
751.000000	-0.012315
750.000000	-0.012539
749.000000	-0.012733
748.000000	-0.012992
747.000000	-0.012199
746.000000	-0.012237
745.000000	-0.012399
744.000000	-0.012356
743.000000	-0.012913
742.000000	-0.012293
741.000000	-0.012452
740.000000	-0.012916
739.000000	-0.012428
738.000000	-0.012581
737.000000	-0.012425
736.000000	-0.012485
735.000000	-0.012323
734.000000	-0.013816
733.000000	-0.013310
732.000000	-0.012669
731.000000	-0.012057
730.000000	-0.012833
729.000000	-0.013215
728.000000	-0.013011
727.000000	-0.013109
726.000000	-0.012442
725.000000	-0.011963
724.000000	-0.011551
723.000000	-0.012046
722.000000	-0.012056
721.000000	-0.011720
720.000000	-0.011817
719.000000	-0.011271
718.000000	-0.011262
717.000000	-0.011295
716.000000	-0.010991
715.000000	-0.010358
714.000000	-0.009637
713.000000	-0.009288
712.000000	-0.008671
711.000000	-0.007923
710.000000	-0.007461
709.000000	-0.006784
708.000000	-0.006311
707.000000	-0.004844
706.000000	-0.002586
705.000000	-0.001095
704.000000	0.001007
703.000000	0.003951
702.000000	0.006740
701.000000	0.009993
700.000000	0.013744
699.000000	0.017334
698.000000	0.021785
697.000000	0.026612
696.000000	0.032370
695.000000	0.039482
694.000000	0.046482
693.000000	0.053384
692.000000	0.062216
691.000000	0.071075
690.000000	0.080459
689.000000	0.090316
688.000000	0.099372
687.000000	0.109204
686.000000	0.118229
685.000000	0.126572
684.000000	0.134596
683.000000	0.141225
682.000000	0.146407
681.000000	0.150260
680.000000	0.152990
679.000000	0.154610
678.000000	0.154854
677.000000	0.154425
676.000000	0.153469
675.000000	0.152078
674.000000	0.149882
673.000000	0.146972
672.000000	0.142888
671.000000	0.138530
670.000000	0.133741
669.000000	0.128070
668.000000	0.122174
667.000000	0.115781
666.000000	0.108856
665.000000	0.101718
664.000000	0.094414
663.000000	0.087287
662.000000	0.080498
661.000000	0.074287
660.000000	0.068277
659.000000	0.062777
658.000000	0.057978
657.000000	0.053302
656.000000	0.049576
655.000000	0.047448
654.000000	0.045003
653.000000	0.043018
652.000000	0.041888
651.000000	0.040533
650.000000	0.039860
649.000000	0.039813
648.000000	0.039857
647.000000	0.039819
646.000000	0.040312
645.000000	0.040919
644.000000	0.042076
643.000000	0.042997
642.000000	0.043772
641.000000	0.045185
640.000000	0.046269
639.000000	0.047113
638.000000	0.048417
637.000000	0.049010
636.000000	0.049453
635.000000	0.049982
634.000000	0.050341
633.000000	0.050823
632.000000	0.051075
631.000000	0.050287
630.000000	0.050177
629.000000	0.050429
628.000000	0.049645
627.000000	0.049544
626.000000	0.049063
625.000000	0.047892
624.000000	0.047482
623.000000	0.046659
622.000000	0.046048
621.000000	0.046172
620.000000	0.045033
619.000000	0.043985
618.000000	0.042478
617.000000	0.041661
616.000000	0.040759
615.000000	0.039605
614.000000	0.038454
613.000000	0.037343
612.000000	0.035722
611.000000	0.034636
610.000000	0.033672
609.000000	0.031746
608.000000	0.031145
607.000000	0.030692
606.000000	0.029877
605.000000	0.029583
604.000000	0.028588
603.000000	0.028371
602.000000	0.028279
601.000000	0.028211
600.000000	0.027627
599.000000	0.027877
598.000000	0.027494
597.000000	0.027324
596.000000	0.027552
595.000000	0.027931
594.000000	0.028279
593.000000	0.028453
592.000000	0.028515
591.000000	0.028990
590.000000	0.029294
589.000000	0.029947
588.000000	0.029592
587.000000	0.029729
586.000000	0.030880
585.000000	0.031224
584.000000	0.031584
583.000000	0.032274
582.000000	0.033359
581.000000	0.034550
580.000000	0.035327
579.000000	0.036688
578.000000	0.038738
577.000000	0.040939
576.000000	0.042555
575.000000	0.044653
574.000000	0.047208
573.000000	0.049924
572.000000	0.052697
571.000000	0.054916
570.000000	0.057169
569.000000	0.059238
568.000000	0.061746
567.000000	0.064264
566.000000	0.066953
565.000000	0.068160
564.000000	0.071534
563.000000	0.074132
562.000000	0.077200
561.000000	0.082007
560.000000	0.085473
559.000000	0.089428
558.000000	0.093429
557.000000	0.097446
556.000000	0.101136
555.000000	0.104594
554.000000	0.108423
553.000000	0.111231
552.000000	0.114080
551.000000	0.116207
550.000000	0.117566
549.000000	0.119419
548.000000	0.120436
547.000000	0.121096
546.000000	0.121344
545.000000	0.121358
544.000000	0.121236
543.000000	0.120436
542.000000	0.120225
541.000000	0.119184
540.000000	0.118788
539.000000	0.117617
538.000000	0.116786
537.000000	0.116147
536.000000	0.115369
535.000000	0.114263
534.000000	0.113117
533.000000	0.111891
532.000000	0.111578
531.000000	0.110841
530.000000	0.109845
529.000000	0.109087
528.000000	0.109308
527.000000	0.108571
526.000000	0.108563
525.000000	0.108902
524.000000	0.108965
523.000000	0.109670
522.000000	0.110378
521.000000	0.111681
520.000000	0.112857
519.000000	0.114994
518.000000	0.116934
517.000000	0.119382
516.000000	0.121591
515.000000	0.124427
514.000000	0.128017
513.000000	0.130563
512.000000	0.134810
511.000000	0.138776
510.000000	0.143216
509.000000	0.147290
508.000000	0.152331
507.000000	0.157104
506.000000	0.161988
505.000000	0.166935
504.000000	0.172364
503.000000	0.177371
502.000000	0.182085
501.000000	0.186633
500.000000	0.190870
499.000000	0.194045
498.000000	0.196846
497.000000	0.198930
496.000000	0.200547
495.000000	0.203099
494.000000	0.203896
493.000000	0.204242
492.000000	0.205139
491.000000	0.204287
490.000000	0.203480
489.000000	0.202905
488.000000	0.201678
487.000000	0.200267
486.000000	0.198649
485.000000	0.196746
484.000000	0.195547
483.000000	0.194071
482.000000	0.192207
481.000000	0.190313
480.000000	0.189451
479.000000	0.188567
478.000000	0.188144
477.000000	0.188337
476.000000	0.188819
475.000000	0.189330
474.000000	0.189571
473.000000	0.190335
472.000000	0.191509
471.000000	0.193110
470.000000	0.194360
469.000000	0.195723
468.000000	0.197204
467.000000	0.198047
466.000000	0.199264
465.000000	0.200150
464.000000	0.201445
463.000000	0.202177
462.000000	0.202973
461.000000	0.203321
460.000000	0.204094
459.000000	0.205221
458.000000	0.205839
457.000000	0.206980
456.000000	0.208905
455.000000	0.210870
454.000000	0.213388
453.000000	0.216580
452.000000	0.220327
451.000000	0.224780
450.000000	0.229229
449.000000	0.234343
448.000000	0.240001
447.000000	0.245633
446.000000	0.251101
445.000000	0.255968
444.000000	0.260694
443.000000	0.264571
442.000000	0.267665
441.000000	0.270560
440.000000	0.271925
439.000000	0.272260
438.000000	0.272465
437.000000	0.271573
436.000000	0.270028
435.000000	0.268614
434.000000	0.266796
433.000000	0.264281
432.000000	0.262084
431.000000	0.258947
430.000000	0.256918
429.000000	0.254787
428.000000	0.252027
427.000000	0.250173
426.000000	0.248826
425.000000	0.247713
424.000000	0.246159
423.000000	0.244970
422.000000	0.244192
421.000000	0.243046
420.000000	0.242632
419.000000	0.241934
418.000000	0.240219
417.000000	0.238597
416.000000	0.237098
415.000000	0.234955
414.000000	0.232256
413.000000	0.229426
412.000000	0.225977
411.000000	0.222834
410.000000	0.219329
409.000000	0.215599
408.000000	0.211955
407.000000	0.208203
406.000000	0.204063
405.000000	0.200850
404.000000	0.198060
403.000000	0.194754
402.000000	0.191524
401.000000	0.189162
400.000000	0.187922
399.000000	0.185720
398.000000	0.183019
397.000000	0.181555
396.000000	0.180529
395.000000	0.179468
394.000000	0.177648
393.000000	0.177088
392.000000	0.176782
391.000000	0.174250
390.000000	0.173430
389.000000	0.172446
388.000000	0.170936
387.000000	0.169835
386.000000	0.168497
385.000000	0.167229
384.000000	0.166276
383.000000	0.165807
382.000000	0.165438
381.000000	0.163546
380.000000	0.160691
379.000000	0.159897
378.000000	0.155585
377.000000	0.149142
376.000000	0.148031
375.000000	0.146450
374.000000	0.144939
373.000000	0.143138
372.000000	0.141333
371.000000	0.137503
370.000000	0.134833
369.000000	0.134771
368.000000	0.134698
367.000000	0.133509
366.000000	0.132151
365.000000	0.128818
364.000000	0.130350
363.000000	0.132463
362.000000	0.131731
361.000000	0.128860
360.000000	0.126901
359.000000	0.127797
358.000000	0.125682
357.000000	0.125577
356.000000	0.125571
355.000000	0.127677
354.000000	0.126496
353.000000	0.125151
352.000000	0.127279
351.000000	0.124864
350.000000	0.125391
349.000000	0.125670
348.000000	0.129141
347.000000	0.130791
346.000000	0.131830
345.000000	0.130345
344.000000	0.131665
343.000000	0.131310
342.000000	0.132384
341.000000	0.134517
340.000000	0.133608
339.000000	0.134707
338.000000	0.136560
337.000000	0.136598
336.000000	0.132680
335.000000	0.131655
334.000000	0.131286
333.000000	0.135119
332.000000	0.134169
331.000000	0.133406
330.000000	0.133562
329.000000	0.131667
328.000000	0.131972
327.000000	0.133553
326.000000	0.131316
325.000000	0.127862
324.000000	0.134380
323.000000	0.131400
322.000000	0.129879
321.000000	0.132732
320.000000	0.133708
319.000000	0.136185
318.000000	0.133694
317.000000	0.135005
316.000000	0.135933
315.000000	0.136134
314.000000	0.136309
313.000000	0.140933
312.000000	0.140855
311.000000	0.144340
310.000000	0.149005
309.000000	0.151736
308.000000	0.151078
307.000000	0.152710
306.000000	0.159643
305.000000	0.163010
304.000000	0.167670
303.000000	0.173975
302.000000	0.181509
301.000000	0.186738
300.000000	0.195100
