PE UV       SUBTECH     SPECTRUM    ASCII       PEDS        4.00        
   -1
PETIT_59.Sample.Raw.asc
20/12/16
09:25:43.00
20/12/16
09:25:43.00
CNRS
Blanc01
300.000000
1
Lambda 850
850L1011221
PerkinElmer UV WinLab 6.0.3.0730 / 1.61.00 Lambda 800

0
0
2
0
0
UV/VIS
1
1
1
RBeamAtt,SBeamAtt,150mm sphere / downward view
0
0
0
0
Fix
 
0
0.2
0
0
0
 
 
 
0
 
0
319.2
0
Front
50
 
S:100 R:100
 
0
0
0
 
0
 
 
 
0
 
 
0
0
0
0
0
 
 
 
 
0
0


#HDR
-1
-1
#GR
nm
A
1.0
0.0
800.000000
-1.000000
501
8
0.011256
-0.022668
#DATA
800.000000	-0.013225
799.000000	-0.015664
798.000000	-0.014691
797.000000	-0.013251
796.000000	-0.013936
795.000000	-0.014145
794.000000	-0.013832
793.000000	-0.014634
792.000000	-0.013353
791.000000	-0.014695
790.000000	-0.013925
789.000000	-0.015021
788.000000	-0.013603
787.000000	-0.013172
786.000000	-0.013462
785.000000	-0.012805
784.000000	-0.012064
783.000000	-0.013761
782.000000	-0.013792
781.000000	-0.014242
780.000000	-0.013471
779.000000	-0.013887
778.000000	-0.014176
777.000000	-0.013103
776.000000	-0.013209
775.000000	-0.014343
774.000000	-0.013518
773.000000	-0.013723
772.000000	-0.013539
771.000000	-0.013013
770.000000	-0.013917
769.000000	-0.013206
768.000000	-0.014604
767.000000	-0.013660
766.000000	-0.013442
765.000000	-0.013643
764.000000	-0.013051
763.000000	-0.013474
762.000000	-0.012816
761.000000	-0.014270
760.000000	-0.014799
759.000000	-0.013149
758.000000	-0.013225
757.000000	-0.013179
756.000000	-0.013570
755.000000	-0.014241
754.000000	-0.013496
753.000000	-0.013868
752.000000	-0.013507
751.000000	-0.013401
750.000000	-0.013400
749.000000	-0.013878
748.000000	-0.014142
747.000000	-0.013261
746.000000	-0.013850
745.000000	-0.014442
744.000000	-0.013781
743.000000	-0.014035
742.000000	-0.013015
741.000000	-0.013538
740.000000	-0.013635
739.000000	-0.013265
738.000000	-0.013131
737.000000	-0.013747
736.000000	-0.014001
735.000000	-0.013822
734.000000	-0.015001
733.000000	-0.014532
732.000000	-0.014218
731.000000	-0.014014
730.000000	-0.014625
729.000000	-0.014906
728.000000	-0.014133
727.000000	-0.014185
726.000000	-0.015021
725.000000	-0.014379
724.000000	-0.013868
723.000000	-0.014590
722.000000	-0.014359
721.000000	-0.014667
720.000000	-0.015084
719.000000	-0.014860
718.000000	-0.014773
717.000000	-0.014953
716.000000	-0.014131
715.000000	-0.014513
714.000000	-0.014615
713.000000	-0.014544
712.000000	-0.014412
711.000000	-0.014884
710.000000	-0.015216
709.000000	-0.014938
708.000000	-0.015819
707.000000	-0.015533
706.000000	-0.014608
705.000000	-0.015266
704.000000	-0.015389
703.000000	-0.014998
702.000000	-0.014294
701.000000	-0.014544
700.000000	-0.014956
699.000000	-0.015237
698.000000	-0.015403
697.000000	-0.015298
696.000000	-0.015160
695.000000	-0.014738
694.000000	-0.014890
693.000000	-0.015329
692.000000	-0.014891
691.000000	-0.015082
690.000000	-0.015101
689.000000	-0.015254
688.000000	-0.015331
687.000000	-0.014811
686.000000	-0.014889
685.000000	-0.014766
684.000000	-0.014639
683.000000	-0.014742
682.000000	-0.014798
681.000000	-0.014771
680.000000	-0.015166
679.000000	-0.015282
678.000000	-0.015362
677.000000	-0.015254
676.000000	-0.014749
675.000000	-0.014465
674.000000	-0.014406
673.000000	-0.014545
672.000000	-0.014520
671.000000	-0.014840
670.000000	-0.015296
669.000000	-0.015135
668.000000	-0.015136
667.000000	-0.014933
666.000000	-0.014577
665.000000	-0.014567
664.000000	-0.014554
663.000000	-0.014923
662.000000	-0.015251
661.000000	-0.014992
660.000000	-0.014712
659.000000	-0.014532
658.000000	-0.014682
657.000000	-0.015177
656.000000	-0.015174
655.000000	-0.014393
654.000000	-0.014700
653.000000	-0.015064
652.000000	-0.014805
651.000000	-0.014889
650.000000	-0.015184
649.000000	-0.015306
648.000000	-0.015201
647.000000	-0.015294
646.000000	-0.015169
645.000000	-0.015182
644.000000	-0.014919
643.000000	-0.015141
642.000000	-0.015270
641.000000	-0.015059
640.000000	-0.015193
639.000000	-0.015082
638.000000	-0.015113
637.000000	-0.015156
636.000000	-0.015094
635.000000	-0.015480
634.000000	-0.015407
633.000000	-0.015031
632.000000	-0.015083
631.000000	-0.015390
630.000000	-0.015265
629.000000	-0.015271
628.000000	-0.015132
627.000000	-0.014980
626.000000	-0.015026
625.000000	-0.015671
624.000000	-0.015107
623.000000	-0.015342
622.000000	-0.015664
621.000000	-0.014876
620.000000	-0.014929
619.000000	-0.015028
618.000000	-0.015031
617.000000	-0.014449
616.000000	-0.015173
615.000000	-0.015237
614.000000	-0.015125
613.000000	-0.015507
612.000000	-0.015397
611.000000	-0.015319
610.000000	-0.014963
609.000000	-0.015628
608.000000	-0.015797
607.000000	-0.015388
606.000000	-0.015214
605.000000	-0.015190
604.000000	-0.015394
603.000000	-0.015225
602.000000	-0.014889
601.000000	-0.015120
600.000000	-0.015549
599.000000	-0.014956
598.000000	-0.015190
597.000000	-0.015784
596.000000	-0.015651
595.000000	-0.015442
594.000000	-0.015156
593.000000	-0.015406
592.000000	-0.015804
591.000000	-0.015429
590.000000	-0.015359
589.000000	-0.015027
588.000000	-0.015337
587.000000	-0.015782
586.000000	-0.015031
585.000000	-0.015202
584.000000	-0.015597
583.000000	-0.015324
582.000000	-0.015094
581.000000	-0.015293
580.000000	-0.015431
579.000000	-0.015392
578.000000	-0.015491
577.000000	-0.014894
576.000000	-0.015462
575.000000	-0.015479
574.000000	-0.015108
573.000000	-0.015163
572.000000	-0.015187
571.000000	-0.015226
570.000000	-0.015303
569.000000	-0.015425
568.000000	-0.015530
567.000000	-0.015152
566.000000	-0.015171
565.000000	-0.015505
564.000000	-0.015248
563.000000	-0.015532
562.000000	-0.015579
561.000000	-0.015097
560.000000	-0.015454
559.000000	-0.014926
558.000000	-0.015050
557.000000	-0.015098
556.000000	-0.015326
555.000000	-0.015301
554.000000	-0.015114
553.000000	-0.015136
552.000000	-0.015368
551.000000	-0.015041
550.000000	-0.015480
549.000000	-0.014821
548.000000	-0.015022
547.000000	-0.015158
546.000000	-0.014691
545.000000	-0.015224
544.000000	-0.014510
543.000000	-0.014827
542.000000	-0.014353
541.000000	-0.014716
540.000000	-0.014811
539.000000	-0.015261
538.000000	-0.014646
537.000000	-0.015199
536.000000	-0.014501
535.000000	-0.014918
534.000000	-0.014676
533.000000	-0.015099
532.000000	-0.015453
531.000000	-0.014648
530.000000	-0.015582
529.000000	-0.015471
528.000000	-0.015037
527.000000	-0.015215
526.000000	-0.014852
525.000000	-0.015028
524.000000	-0.015392
523.000000	-0.015229
522.000000	-0.015481
521.000000	-0.015163
520.000000	-0.015315
519.000000	-0.015559
518.000000	-0.015106
517.000000	-0.014794
516.000000	-0.015086
515.000000	-0.015601
514.000000	-0.015250
513.000000	-0.015077
512.000000	-0.015018
511.000000	-0.015110
510.000000	-0.014885
509.000000	-0.015126
508.000000	-0.015114
507.000000	-0.014853
506.000000	-0.015347
505.000000	-0.015076
504.000000	-0.015087
503.000000	-0.014683
502.000000	-0.014974
501.000000	-0.015110
500.000000	-0.014519
499.000000	-0.014716
498.000000	-0.014950
497.000000	-0.014971
496.000000	-0.015119
495.000000	-0.014675
494.000000	-0.014724
493.000000	-0.014944
492.000000	-0.015104
491.000000	-0.014515
490.000000	-0.014505
489.000000	-0.014552
488.000000	-0.014493
487.000000	-0.014216
486.000000	-0.014375
485.000000	-0.014639
484.000000	-0.014328
483.000000	-0.014489
482.000000	-0.014521
481.000000	-0.015098
480.000000	-0.014862
479.000000	-0.015013
478.000000	-0.014740
477.000000	-0.014829
476.000000	-0.014928
475.000000	-0.015125
474.000000	-0.015245
473.000000	-0.015155
472.000000	-0.015404
471.000000	-0.015108
470.000000	-0.014944
469.000000	-0.015187
468.000000	-0.015010
467.000000	-0.015253
466.000000	-0.015744
465.000000	-0.015684
464.000000	-0.015150
463.000000	-0.015383
462.000000	-0.015568
461.000000	-0.016082
460.000000	-0.015832
459.000000	-0.015659
458.000000	-0.015221
457.000000	-0.015544
456.000000	-0.015524
455.000000	-0.015323
454.000000	-0.015462
453.000000	-0.015768
452.000000	-0.015456
451.000000	-0.014695
450.000000	-0.014937
449.000000	-0.014748
448.000000	-0.014509
447.000000	-0.015286
446.000000	-0.015522
445.000000	-0.015727
444.000000	-0.015507
443.000000	-0.015350
442.000000	-0.015295
441.000000	-0.015457
440.000000	-0.015278
439.000000	-0.015017
438.000000	-0.015490
437.000000	-0.015444
436.000000	-0.015772
435.000000	-0.015879
434.000000	-0.015466
433.000000	-0.015627
432.000000	-0.015750
431.000000	-0.016130
430.000000	-0.015620
429.000000	-0.015503
428.000000	-0.015808
427.000000	-0.015253
426.000000	-0.015434
425.000000	-0.015836
424.000000	-0.016120
423.000000	-0.016390
422.000000	-0.016297
421.000000	-0.016522
420.000000	-0.016086
419.000000	-0.015990
418.000000	-0.016474
417.000000	-0.016762
416.000000	-0.016731
415.000000	-0.016600
414.000000	-0.016149
413.000000	-0.016152
412.000000	-0.016444
411.000000	-0.016518
410.000000	-0.017153
409.000000	-0.016786
408.000000	-0.016840
407.000000	-0.016887
406.000000	-0.016558
405.000000	-0.016844
404.000000	-0.017213
403.000000	-0.017216
402.000000	-0.016887
401.000000	-0.016820
400.000000	-0.017370
399.000000	-0.016819
398.000000	-0.016867
397.000000	-0.017511
396.000000	-0.016825
395.000000	-0.016452
394.000000	-0.017142
393.000000	-0.017360
392.000000	-0.017355
391.000000	-0.017561
390.000000	-0.017572
389.000000	-0.017968
388.000000	-0.018374
387.000000	-0.018157
386.000000	-0.017972
385.000000	-0.017707
384.000000	-0.018113
383.000000	-0.017902
382.000000	-0.017117
381.000000	-0.018523
380.000000	-0.019216
379.000000	-0.017105
378.000000	-0.015505
377.000000	-0.016995
376.000000	-0.016812
375.000000	-0.016891
374.000000	-0.018472
373.000000	-0.017100
372.000000	-0.017853
371.000000	-0.019831
370.000000	-0.020471
369.000000	-0.019624
368.000000	-0.019605
367.000000	-0.019262
366.000000	-0.019260
365.000000	-0.019899
364.000000	-0.018086
363.000000	-0.017825
362.000000	-0.017084
361.000000	-0.019364
360.000000	-0.020808
359.000000	-0.019917
358.000000	-0.020226
357.000000	-0.020388
356.000000	-0.019542
355.000000	-0.017329
354.000000	-0.019280
353.000000	-0.019954
352.000000	-0.019053
351.000000	-0.020691
350.000000	-0.020228
349.000000	-0.020469
348.000000	-0.020323
347.000000	-0.021077
346.000000	-0.021548
345.000000	-0.020280
344.000000	-0.020503
343.000000	-0.021798
342.000000	-0.020139
341.000000	-0.020270
340.000000	-0.020416
339.000000	-0.022161
338.000000	-0.020734
337.000000	-0.021551
336.000000	-0.021031
335.000000	-0.021619
334.000000	-0.022668
333.000000	-0.020344
332.000000	-0.017198
331.000000	-0.019454
330.000000	-0.020726
329.000000	-0.020544
328.000000	-0.021432
327.000000	-0.017200
326.000000	-0.017580
325.000000	-0.021010
324.000000	-0.016724
323.000000	-0.016465
322.000000	-0.016733
321.000000	-0.015806
320.000000	-0.012470
319.000000	-0.016122
318.000000	-0.013239
317.000000	-0.014211
316.000000	-0.014677
315.000000	-0.011709
314.000000	-0.010596
313.000000	-0.008832
312.000000	-0.009102
311.000000	-0.006929
310.000000	-0.005534
309.000000	-0.002735
308.000000	-0.003273
307.000000	-0.005512
306.000000	0.000020
305.000000	0.001518
304.000000	0.003670
303.000000	0.005461
302.000000	0.007456
301.000000	0.009033
300.000000	0.011256
