PE UV       SUBTECH     SPECTRUM    ASCII       PEDS        4.00        
   -1
PETIT_68.Sample.Raw.asc
20/12/16
09:58:04.00
20/12/16
09:58:04.00
CNRS
RCC2374_B_D2
300.000000
1
Lambda 850
850L1011221
PerkinElmer UV WinLab 6.0.3.0730 / 1.61.00 Lambda 800

0
0
2
0
0
UV/VIS
1
1
1
RBeamAtt,SBeamAtt,150mm sphere / downward view
0
0
0
0
Fix
 
0
0.2
0
0
0
 
 
 
0
 
0
319.2
0
Front
50
 
S:100 R:100
 
0
0
0
 
0
 
 
 
0
 
 
0
0
0
0
0
 
 
 
 
0
0


#HDR
-1
-1
#GR
nm
A
1.0
0.0
800.000000
-1.000000
501
8
0.219374
-0.013865
#DATA
800.000000	-0.012989
799.000000	-0.013364
798.000000	-0.012928
797.000000	-0.012114
796.000000	-0.012117
795.000000	-0.012121
794.000000	-0.013851
793.000000	-0.013439
792.000000	-0.011973
791.000000	-0.012319
790.000000	-0.011973
789.000000	-0.013164
788.000000	-0.011909
787.000000	-0.011374
786.000000	-0.013865
785.000000	-0.013116
784.000000	-0.012148
783.000000	-0.013472
782.000000	-0.013214
781.000000	-0.013530
780.000000	-0.012604
779.000000	-0.013223
778.000000	-0.012579
777.000000	-0.011423
776.000000	-0.013021
775.000000	-0.012156
774.000000	-0.013097
773.000000	-0.013005
772.000000	-0.012657
771.000000	-0.012471
770.000000	-0.012056
769.000000	-0.011733
768.000000	-0.012608
767.000000	-0.012328
766.000000	-0.011700
765.000000	-0.012530
764.000000	-0.011657
763.000000	-0.012656
762.000000	-0.011973
761.000000	-0.012142
760.000000	-0.013091
759.000000	-0.012626
758.000000	-0.012550
757.000000	-0.012218
756.000000	-0.012717
755.000000	-0.013380
754.000000	-0.013077
753.000000	-0.012921
752.000000	-0.012659
751.000000	-0.012471
750.000000	-0.012727
749.000000	-0.012190
748.000000	-0.013031
747.000000	-0.012465
746.000000	-0.011923
745.000000	-0.012615
744.000000	-0.012329
743.000000	-0.013209
742.000000	-0.012275
741.000000	-0.013344
740.000000	-0.012341
739.000000	-0.012835
738.000000	-0.012527
737.000000	-0.012830
736.000000	-0.012929
735.000000	-0.012536
734.000000	-0.013598
733.000000	-0.013217
732.000000	-0.012770
731.000000	-0.012468
730.000000	-0.012944
729.000000	-0.013721
728.000000	-0.013073
727.000000	-0.013072
726.000000	-0.013358
725.000000	-0.012471
724.000000	-0.011971
723.000000	-0.012756
722.000000	-0.012544
721.000000	-0.013167
720.000000	-0.013276
719.000000	-0.012727
718.000000	-0.012731
717.000000	-0.012844
716.000000	-0.012811
715.000000	-0.012700
714.000000	-0.012422
713.000000	-0.012077
712.000000	-0.011339
711.000000	-0.011119
710.000000	-0.011398
709.000000	-0.010417
708.000000	-0.010411
707.000000	-0.009846
706.000000	-0.008195
705.000000	-0.008006
704.000000	-0.007593
703.000000	-0.006618
702.000000	-0.005084
701.000000	-0.003181
700.000000	-0.001696
699.000000	-0.000308
698.000000	0.001291
697.000000	0.004097
696.000000	0.007088
695.000000	0.010410
694.000000	0.013940
693.000000	0.017779
692.000000	0.022541
691.000000	0.026894
690.000000	0.031784
689.000000	0.036799
688.000000	0.041499
687.000000	0.046673
686.000000	0.051859
685.000000	0.056428
684.000000	0.060645
683.000000	0.064311
682.000000	0.066769
681.000000	0.068345
680.000000	0.069861
679.000000	0.071151
678.000000	0.071083
677.000000	0.070420
676.000000	0.069689
675.000000	0.068946
674.000000	0.067372
673.000000	0.065466
672.000000	0.063416
671.000000	0.061050
670.000000	0.058479
669.000000	0.055336
668.000000	0.051827
667.000000	0.048392
666.000000	0.044771
665.000000	0.041483
664.000000	0.037941
663.000000	0.034307
662.000000	0.030686
661.000000	0.027644
660.000000	0.025228
659.000000	0.022463
658.000000	0.019522
657.000000	0.017129
656.000000	0.015488
655.000000	0.014676
654.000000	0.013626
653.000000	0.012459
652.000000	0.011891
651.000000	0.011547
650.000000	0.010928
649.000000	0.010613
648.000000	0.010721
647.000000	0.010975
646.000000	0.011181
645.000000	0.010904
644.000000	0.011344
643.000000	0.011641
642.000000	0.012112
641.000000	0.012778
640.000000	0.013032
639.000000	0.013446
638.000000	0.013788
637.000000	0.014289
636.000000	0.014332
635.000000	0.014498
634.000000	0.014662
633.000000	0.015175
632.000000	0.015352
631.000000	0.014714
630.000000	0.014832
629.000000	0.015150
628.000000	0.014934
627.000000	0.014648
626.000000	0.014914
625.000000	0.014663
624.000000	0.014485
623.000000	0.013992
622.000000	0.013589
621.000000	0.013959
620.000000	0.013268
619.000000	0.013241
618.000000	0.012451
617.000000	0.012001
616.000000	0.011479
615.000000	0.010693
614.000000	0.010081
613.000000	0.009691
612.000000	0.009376
611.000000	0.008956
610.000000	0.008438
609.000000	0.007509
608.000000	0.007133
607.000000	0.006820
606.000000	0.006435
605.000000	0.006451
604.000000	0.005976
603.000000	0.006193
602.000000	0.005885
601.000000	0.005861
600.000000	0.006016
599.000000	0.005940
598.000000	0.004966
597.000000	0.004684
596.000000	0.005359
595.000000	0.005710
594.000000	0.005803
593.000000	0.005821
592.000000	0.005149
591.000000	0.005484
590.000000	0.005860
589.000000	0.005768
588.000000	0.005355
587.000000	0.005515
586.000000	0.005861
585.000000	0.005755
584.000000	0.005812
583.000000	0.006121
582.000000	0.006450
581.000000	0.006005
580.000000	0.006467
579.000000	0.006900
578.000000	0.007411
577.000000	0.008472
576.000000	0.009014
575.000000	0.009804
574.000000	0.010865
573.000000	0.011774
572.000000	0.013221
571.000000	0.014467
570.000000	0.015068
569.000000	0.016415
568.000000	0.017569
567.000000	0.019534
566.000000	0.020859
565.000000	0.022218
564.000000	0.023873
563.000000	0.025210
562.000000	0.027088
561.000000	0.029623
560.000000	0.031514
559.000000	0.033538
558.000000	0.035950
557.000000	0.038177
556.000000	0.039830
555.000000	0.041798
554.000000	0.043875
553.000000	0.045469
552.000000	0.046429
551.000000	0.047517
550.000000	0.048799
549.000000	0.049814
548.000000	0.050857
547.000000	0.051241
546.000000	0.051942
545.000000	0.051763
544.000000	0.052496
543.000000	0.051774
542.000000	0.052104
541.000000	0.051365
540.000000	0.051358
539.000000	0.051294
538.000000	0.050743
537.000000	0.051274
536.000000	0.050741
535.000000	0.050931
534.000000	0.049673
533.000000	0.050415
532.000000	0.049934
531.000000	0.049525
530.000000	0.049078
529.000000	0.049625
528.000000	0.050060
527.000000	0.050152
526.000000	0.051046
525.000000	0.050980
524.000000	0.051163
523.000000	0.052165
522.000000	0.052632
521.000000	0.054173
520.000000	0.054965
519.000000	0.056437
518.000000	0.058070
517.000000	0.060040
516.000000	0.061703
515.000000	0.063263
514.000000	0.065826
513.000000	0.067521
512.000000	0.069735
511.000000	0.072023
510.000000	0.075467
509.000000	0.077455
508.000000	0.079749
507.000000	0.082930
506.000000	0.085240
505.000000	0.088128
504.000000	0.091205
503.000000	0.093467
502.000000	0.096392
501.000000	0.098350
500.000000	0.100220
499.000000	0.102412
498.000000	0.103560
497.000000	0.104467
496.000000	0.105109
495.000000	0.106203
494.000000	0.106612
493.000000	0.106407
492.000000	0.106902
491.000000	0.106858
490.000000	0.105788
489.000000	0.105859
488.000000	0.105146
487.000000	0.104923
486.000000	0.104136
485.000000	0.103619
484.000000	0.103634
483.000000	0.103136
482.000000	0.102964
481.000000	0.102350
480.000000	0.102438
479.000000	0.102836
478.000000	0.103174
477.000000	0.103514
476.000000	0.104613
475.000000	0.105804
474.000000	0.106264
473.000000	0.107193
472.000000	0.108344
471.000000	0.109675
470.000000	0.110605
469.000000	0.111544
468.000000	0.112866
467.000000	0.113358
466.000000	0.114079
465.000000	0.115121
464.000000	0.115951
463.000000	0.116520
462.000000	0.116822
461.000000	0.117335
460.000000	0.118098
459.000000	0.119007
458.000000	0.119944
457.000000	0.121208
456.000000	0.122412
455.000000	0.123561
454.000000	0.125212
453.000000	0.127162
452.000000	0.129879
451.000000	0.132519
450.000000	0.135603
449.000000	0.139449
448.000000	0.143110
447.000000	0.146133
446.000000	0.149592
445.000000	0.152835
444.000000	0.155665
443.000000	0.158323
442.000000	0.161096
441.000000	0.163153
440.000000	0.163813
439.000000	0.164492
438.000000	0.164959
437.000000	0.164789
436.000000	0.164140
435.000000	0.163688
434.000000	0.163412
433.000000	0.162358
432.000000	0.161107
431.000000	0.160065
430.000000	0.159121
429.000000	0.158057
428.000000	0.157154
427.000000	0.156527
426.000000	0.156012
425.000000	0.155297
424.000000	0.155111
423.000000	0.155317
422.000000	0.154732
421.000000	0.154385
420.000000	0.155200
419.000000	0.155539
418.000000	0.155577
417.000000	0.155519
416.000000	0.155043
415.000000	0.154580
414.000000	0.154501
413.000000	0.154408
412.000000	0.153480
411.000000	0.152831
410.000000	0.152019
409.000000	0.150718
408.000000	0.149465
407.000000	0.149018
406.000000	0.148539
405.000000	0.147473
404.000000	0.146898
403.000000	0.145761
402.000000	0.146076
401.000000	0.147432
400.000000	0.147441
399.000000	0.146773
398.000000	0.147438
397.000000	0.147956
396.000000	0.148525
395.000000	0.149921
394.000000	0.150286
393.000000	0.151551
392.000000	0.152615
391.000000	0.152594
390.000000	0.153061
389.000000	0.154463
388.000000	0.155280
387.000000	0.155504
386.000000	0.156743
385.000000	0.156552
384.000000	0.155939
383.000000	0.156883
382.000000	0.157658
381.000000	0.157598
380.000000	0.156639
379.000000	0.156137
378.000000	0.153081
377.000000	0.148896
376.000000	0.148317
375.000000	0.147514
374.000000	0.145255
373.000000	0.143769
372.000000	0.143278
371.000000	0.140402
370.000000	0.140572
369.000000	0.141595
368.000000	0.139010
367.000000	0.138448
366.000000	0.138649
365.000000	0.137161
364.000000	0.136692
363.000000	0.137743
362.000000	0.138486
361.000000	0.136865
360.000000	0.136082
359.000000	0.135871
358.000000	0.136549
357.000000	0.136888
356.000000	0.135522
355.000000	0.138390
354.000000	0.140567
353.000000	0.137692
352.000000	0.140703
351.000000	0.140902
350.000000	0.143442
349.000000	0.142766
348.000000	0.143718
347.000000	0.144504
346.000000	0.146431
345.000000	0.148202
344.000000	0.146690
343.000000	0.147628
342.000000	0.150018
341.000000	0.152353
340.000000	0.152161
339.000000	0.152500
338.000000	0.155571
337.000000	0.156371
336.000000	0.153210
335.000000	0.158512
334.000000	0.156090
333.000000	0.159157
332.000000	0.160516
331.000000	0.159221
330.000000	0.161250
329.000000	0.162492
328.000000	0.163695
327.000000	0.166668
326.000000	0.161343
325.000000	0.162687
324.000000	0.168873
323.000000	0.169789
322.000000	0.167593
321.000000	0.170837
320.000000	0.176171
319.000000	0.174444
318.000000	0.173904
317.000000	0.173580
316.000000	0.174004
315.000000	0.179212
314.000000	0.179572
313.000000	0.183034
312.000000	0.182793
311.000000	0.186515
310.000000	0.189424
309.000000	0.189981
308.000000	0.193645
307.000000	0.192917
306.000000	0.198369
305.000000	0.201808
304.000000	0.205863
303.000000	0.209774
302.000000	0.212838
301.000000	0.215539
300.000000	0.219374
