PE UV       SUBTECH     SPECTRUM    ASCII       PEDS        4.00        
   -1
PETIT_71.Sample.Raw.asc
20/12/16
10:08:59.00
20/12/16
10:08:59.00
CNRS
RCC0100_B_D2
300.000000
1
Lambda 850
850L1011221
PerkinElmer UV WinLab 6.0.3.0730 / 1.61.00 Lambda 800

0
0
2
0
0
UV/VIS
1
1
1
RBeamAtt,SBeamAtt,150mm sphere / downward view
0
0
0
0
Fix
 
0
0.2
0
0
0
 
 
 
0
 
0
319.2
0
Front
50
 
S:100 R:100
 
0
0
0
 
0
 
 
 
0
 
 
0
0
0
0
0
 
 
 
 
0
0


#HDR
-1
-1
#GR
nm
A
1.0
0.0
800.000000
-1.000000
501
8
0.456330
-0.013294
#DATA
800.000000	-0.011410
799.000000	-0.012623
798.000000	-0.012661
797.000000	-0.012311
796.000000	-0.012070
795.000000	-0.012722
794.000000	-0.010979
793.000000	-0.013153
792.000000	-0.010607
791.000000	-0.011419
790.000000	-0.012277
789.000000	-0.013294
788.000000	-0.011541
787.000000	-0.010843
786.000000	-0.010693
785.000000	-0.013056
784.000000	-0.011210
783.000000	-0.012065
782.000000	-0.012093
781.000000	-0.012152
780.000000	-0.011379
779.000000	-0.012051
778.000000	-0.012306
777.000000	-0.010571
776.000000	-0.011865
775.000000	-0.011535
774.000000	-0.012043
773.000000	-0.012171
772.000000	-0.011836
771.000000	-0.011428
770.000000	-0.012085
769.000000	-0.011296
768.000000	-0.012901
767.000000	-0.011991
766.000000	-0.012304
765.000000	-0.012720
764.000000	-0.011369
763.000000	-0.011566
762.000000	-0.011997
761.000000	-0.011614
760.000000	-0.011894
759.000000	-0.011506
758.000000	-0.011566
757.000000	-0.010824
756.000000	-0.012354
755.000000	-0.012117
754.000000	-0.012099
753.000000	-0.012183
752.000000	-0.012452
751.000000	-0.011810
750.000000	-0.011750
749.000000	-0.011406
748.000000	-0.012178
747.000000	-0.011443
746.000000	-0.011965
745.000000	-0.012559
744.000000	-0.011828
743.000000	-0.011978
742.000000	-0.011213
741.000000	-0.011744
740.000000	-0.011524
739.000000	-0.012087
738.000000	-0.012016
737.000000	-0.012294
736.000000	-0.013003
735.000000	-0.011775
734.000000	-0.012133
733.000000	-0.012608
732.000000	-0.012419
731.000000	-0.012280
730.000000	-0.013016
729.000000	-0.013055
728.000000	-0.012409
727.000000	-0.012702
726.000000	-0.012612
725.000000	-0.011596
724.000000	-0.011871
723.000000	-0.012661
722.000000	-0.012321
721.000000	-0.012239
720.000000	-0.012522
719.000000	-0.011810
718.000000	-0.012084
717.000000	-0.012280
716.000000	-0.012055
715.000000	-0.012121
714.000000	-0.011403
713.000000	-0.011821
712.000000	-0.011718
711.000000	-0.011364
710.000000	-0.011397
709.000000	-0.011244
708.000000	-0.011623
707.000000	-0.011056
706.000000	-0.009969
705.000000	-0.010180
704.000000	-0.009982
703.000000	-0.009486
702.000000	-0.008272
701.000000	-0.007551
700.000000	-0.006933
699.000000	-0.006673
698.000000	-0.006237
697.000000	-0.005240
696.000000	-0.003709
695.000000	-0.001453
694.000000	0.000127
693.000000	0.002271
692.000000	0.005601
691.000000	0.008976
690.000000	0.012879
689.000000	0.017574
688.000000	0.022362
687.000000	0.027436
686.000000	0.032630
685.000000	0.038953
684.000000	0.044807
683.000000	0.049926
682.000000	0.055149
681.000000	0.059672
680.000000	0.063712
679.000000	0.067700
678.000000	0.070734
677.000000	0.073040
676.000000	0.074856
675.000000	0.075988
674.000000	0.076135
673.000000	0.074999
672.000000	0.073317
671.000000	0.070559
670.000000	0.066932
669.000000	0.063113
668.000000	0.058463
667.000000	0.054133
666.000000	0.050161
665.000000	0.045843
664.000000	0.041072
663.000000	0.036355
662.000000	0.032366
661.000000	0.029545
660.000000	0.026714
659.000000	0.023968
658.000000	0.021159
657.000000	0.019153
656.000000	0.017556
655.000000	0.016628
654.000000	0.015877
653.000000	0.015151
652.000000	0.014503
651.000000	0.014035
650.000000	0.013980
649.000000	0.014271
648.000000	0.014766
647.000000	0.015090
646.000000	0.015757
645.000000	0.016356
644.000000	0.017306
643.000000	0.018089
642.000000	0.018472
641.000000	0.018911
640.000000	0.019569
639.000000	0.019682
638.000000	0.020035
637.000000	0.020080
636.000000	0.019244
635.000000	0.019250
634.000000	0.019386
633.000000	0.019421
632.000000	0.019116
631.000000	0.018179
630.000000	0.017744
629.000000	0.017602
628.000000	0.017307
627.000000	0.016891
626.000000	0.016547
625.000000	0.016094
624.000000	0.016231
623.000000	0.016288
622.000000	0.015643
621.000000	0.016134
620.000000	0.016125
619.000000	0.015869
618.000000	0.015592
617.000000	0.015862
616.000000	0.015913
615.000000	0.015682
614.000000	0.015324
613.000000	0.015311
612.000000	0.015555
611.000000	0.016185
610.000000	0.016188
609.000000	0.015612
608.000000	0.015880
607.000000	0.016419
606.000000	0.016936
605.000000	0.017081
604.000000	0.017143
603.000000	0.018053
602.000000	0.018480
601.000000	0.019208
600.000000	0.019394
599.000000	0.020427
598.000000	0.020711
597.000000	0.020457
596.000000	0.021112
595.000000	0.021624
594.000000	0.022394
593.000000	0.022517
592.000000	0.022355
591.000000	0.022388
590.000000	0.022605
589.000000	0.022310
588.000000	0.021625
587.000000	0.021378
586.000000	0.021781
585.000000	0.021053
584.000000	0.020692
583.000000	0.020422
582.000000	0.019930
581.000000	0.019386
580.000000	0.019351
579.000000	0.019081
578.000000	0.018210
577.000000	0.018365
576.000000	0.018050
575.000000	0.018006
574.000000	0.018198
573.000000	0.017854
572.000000	0.018338
571.000000	0.018118
570.000000	0.018132
569.000000	0.018284
568.000000	0.018535
567.000000	0.019094
566.000000	0.019849
565.000000	0.020269
564.000000	0.020738
563.000000	0.021029
562.000000	0.021825
561.000000	0.023142
560.000000	0.023856
559.000000	0.024911
558.000000	0.025591
557.000000	0.026812
556.000000	0.027995
555.000000	0.028878
554.000000	0.029978
553.000000	0.031146
552.000000	0.031855
551.000000	0.033200
550.000000	0.034162
549.000000	0.035606
548.000000	0.037771
547.000000	0.039001
546.000000	0.040071
545.000000	0.041216
544.000000	0.043470
543.000000	0.044498
542.000000	0.045700
541.000000	0.046861
540.000000	0.048539
539.000000	0.049916
538.000000	0.051659
537.000000	0.053528
536.000000	0.055091
535.000000	0.056378
534.000000	0.058159
533.000000	0.059353
532.000000	0.061393
531.000000	0.063235
530.000000	0.064537
529.000000	0.066164
528.000000	0.068357
527.000000	0.069847
526.000000	0.071637
525.000000	0.073045
524.000000	0.074688
523.000000	0.076199
522.000000	0.077939
521.000000	0.079904
520.000000	0.081528
519.000000	0.083062
518.000000	0.085514
517.000000	0.086922
516.000000	0.088214
515.000000	0.089863
514.000000	0.092508
513.000000	0.094395
512.000000	0.095514
511.000000	0.097557
510.000000	0.099896
509.000000	0.101794
508.000000	0.103830
507.000000	0.106457
506.000000	0.108188
505.000000	0.110942
504.000000	0.113885
503.000000	0.116410
502.000000	0.118477
501.000000	0.121239
500.000000	0.124197
499.000000	0.126852
498.000000	0.130366
497.000000	0.133222
496.000000	0.136244
495.000000	0.139898
494.000000	0.143588
493.000000	0.146888
492.000000	0.150220
491.000000	0.153580
490.000000	0.156029
489.000000	0.159376
488.000000	0.163052
487.000000	0.165861
486.000000	0.168219
485.000000	0.170476
484.000000	0.173123
483.000000	0.175189
482.000000	0.177306
481.000000	0.178612
480.000000	0.180513
479.000000	0.182048
478.000000	0.183609
477.000000	0.184824
476.000000	0.186746
475.000000	0.188333
474.000000	0.189268
473.000000	0.190986
472.000000	0.191994
471.000000	0.193679
470.000000	0.195130
469.000000	0.196382
468.000000	0.197567
467.000000	0.198324
466.000000	0.199331
465.000000	0.201286
464.000000	0.202102
463.000000	0.202871
462.000000	0.203266
461.000000	0.203356
460.000000	0.204191
459.000000	0.205470
458.000000	0.206157
457.000000	0.206853
456.000000	0.207374
455.000000	0.207486
454.000000	0.207765
453.000000	0.208891
452.000000	0.209670
451.000000	0.210920
450.000000	0.212209
449.000000	0.213334
448.000000	0.214901
447.000000	0.216624
446.000000	0.218332
445.000000	0.220154
444.000000	0.222892
443.000000	0.224912
442.000000	0.226636
441.000000	0.228671
440.000000	0.230223
439.000000	0.231659
438.000000	0.232590
437.000000	0.233577
436.000000	0.234983
435.000000	0.234963
434.000000	0.234528
433.000000	0.234842
432.000000	0.235194
431.000000	0.234876
430.000000	0.234780
429.000000	0.234947
428.000000	0.235250
427.000000	0.235297
426.000000	0.235956
425.000000	0.236545
424.000000	0.237557
423.000000	0.239071
422.000000	0.239695
421.000000	0.241151
420.000000	0.243396
419.000000	0.244817
418.000000	0.245861
417.000000	0.246949
416.000000	0.248836
415.000000	0.250230
414.000000	0.251631
413.000000	0.252874
412.000000	0.253802
411.000000	0.255290
410.000000	0.255734
409.000000	0.256370
408.000000	0.257430
407.000000	0.258255
406.000000	0.258560
405.000000	0.259641
404.000000	0.260995
403.000000	0.261344
402.000000	0.262282
401.000000	0.264694
400.000000	0.266753
399.000000	0.267754
398.000000	0.269097
397.000000	0.270605
396.000000	0.273160
395.000000	0.274680
394.000000	0.276647
393.000000	0.278377
392.000000	0.281073
391.000000	0.282733
390.000000	0.284932
389.000000	0.287280
388.000000	0.289101
387.000000	0.292057
386.000000	0.294627
385.000000	0.296709
384.000000	0.298983
383.000000	0.302341
382.000000	0.305303
381.000000	0.307135
380.000000	0.309776
379.000000	0.313038
378.000000	0.308680
377.000000	0.306304
376.000000	0.308538
375.000000	0.310455
374.000000	0.310682
373.000000	0.316077
372.000000	0.318860
371.000000	0.321227
370.000000	0.324014
369.000000	0.328466
368.000000	0.331565
367.000000	0.332497
366.000000	0.334979
365.000000	0.338309
364.000000	0.342975
363.000000	0.345499
362.000000	0.349753
361.000000	0.350198
360.000000	0.353880
359.000000	0.355391
358.000000	0.358167
357.000000	0.362215
356.000000	0.364794
355.000000	0.368363
354.000000	0.370884
353.000000	0.371045
352.000000	0.374098
351.000000	0.374980
350.000000	0.380583
349.000000	0.380637
348.000000	0.383736
347.000000	0.384947
346.000000	0.387656
345.000000	0.391189
344.000000	0.393390
343.000000	0.393308
342.000000	0.394452
341.000000	0.397427
340.000000	0.398353
339.000000	0.400237
338.000000	0.406587
337.000000	0.405607
336.000000	0.406155
335.000000	0.411118
334.000000	0.407614
333.000000	0.417019
332.000000	0.416496
331.000000	0.418595
330.000000	0.418535
329.000000	0.416363
328.000000	0.418022
327.000000	0.423605
326.000000	0.425590
325.000000	0.422575
324.000000	0.429053
323.000000	0.427091
322.000000	0.428800
321.000000	0.430045
320.000000	0.433591
319.000000	0.434395
318.000000	0.431964
317.000000	0.430103
316.000000	0.432298
315.000000	0.431256
314.000000	0.433900
313.000000	0.437129
312.000000	0.435549
311.000000	0.439360
310.000000	0.442472
309.000000	0.442482
308.000000	0.442274
307.000000	0.441803
306.000000	0.446845
305.000000	0.446767
304.000000	0.450587
303.000000	0.450969
302.000000	0.452980
301.000000	0.454509
300.000000	0.456330
