PE UV       SUBTECH     SPECTRUM    ASCII       PEDS        4.00        
   -1
PETIT_93.Sample.Raw.asc
20/12/16
12:20:59.00
20/12/16
12:20:59.00
CNRS
RCC3006_C_D2
300.000000
1
Lambda 850
850L1011221
PerkinElmer UV WinLab 6.0.3.0730 / 1.61.00 Lambda 800

0
0
2
0
0
UV/VIS
1
1
1
RBeamAtt,SBeamAtt,150mm sphere / downward view
0
0
0
0
Fix
 
0
0.2
0
0
0
 
 
 
0
 
0
319.2
0
Front
50
 
S:100 R:100
 
0
0
0
 
0
 
 
 
0
 
 
0
0
0
0
0
 
 
 
 
0
0


#HDR
-1
-1
#GR
nm
A
1.0
0.0
800.000000
-1.000000
501
8
0.232041
-0.014465
#DATA
800.000000	-0.013998
799.000000	-0.013935
798.000000	-0.013297
797.000000	-0.013124
796.000000	-0.012288
795.000000	-0.013506
794.000000	-0.013922
793.000000	-0.013355
792.000000	-0.012685
791.000000	-0.013060
790.000000	-0.014465
789.000000	-0.013542
788.000000	-0.014068
787.000000	-0.012216
786.000000	-0.012802
785.000000	-0.013305
784.000000	-0.012427
783.000000	-0.012558
782.000000	-0.014164
781.000000	-0.013400
780.000000	-0.011077
779.000000	-0.012819
778.000000	-0.013653
777.000000	-0.011285
776.000000	-0.011582
775.000000	-0.012363
774.000000	-0.012243
773.000000	-0.012411
772.000000	-0.012302
771.000000	-0.012298
770.000000	-0.012512
769.000000	-0.012997
768.000000	-0.014410
767.000000	-0.012927
766.000000	-0.012499
765.000000	-0.013481
764.000000	-0.012307
763.000000	-0.012144
762.000000	-0.012383
761.000000	-0.012415
760.000000	-0.012505
759.000000	-0.012315
758.000000	-0.012451
757.000000	-0.011568
756.000000	-0.012467
755.000000	-0.013559
754.000000	-0.013520
753.000000	-0.013713
752.000000	-0.012905
751.000000	-0.012841
750.000000	-0.012470
749.000000	-0.012765
748.000000	-0.013454
747.000000	-0.012747
746.000000	-0.012421
745.000000	-0.012361
744.000000	-0.012444
743.000000	-0.012602
742.000000	-0.012297
741.000000	-0.012443
740.000000	-0.011913
739.000000	-0.012893
738.000000	-0.012700
737.000000	-0.012247
736.000000	-0.013004
735.000000	-0.012592
734.000000	-0.013292
733.000000	-0.013399
732.000000	-0.013134
731.000000	-0.012635
730.000000	-0.013364
729.000000	-0.014200
728.000000	-0.013415
727.000000	-0.013526
726.000000	-0.014046
725.000000	-0.013304
724.000000	-0.012855
723.000000	-0.012869
722.000000	-0.012928
721.000000	-0.013153
720.000000	-0.013010
719.000000	-0.013454
718.000000	-0.012887
717.000000	-0.012564
716.000000	-0.013292
715.000000	-0.013202
714.000000	-0.012691
713.000000	-0.012774
712.000000	-0.012508
711.000000	-0.012151
710.000000	-0.012467
709.000000	-0.012330
708.000000	-0.012384
707.000000	-0.011843
706.000000	-0.011255
705.000000	-0.011455
704.000000	-0.011228
703.000000	-0.010302
702.000000	-0.009112
701.000000	-0.008221
700.000000	-0.007292
699.000000	-0.006888
698.000000	-0.006182
697.000000	-0.004417
696.000000	-0.002318
695.000000	-0.000504
694.000000	0.001575
693.000000	0.004228
692.000000	0.007689
691.000000	0.011236
690.000000	0.014795
689.000000	0.018805
688.000000	0.023227
687.000000	0.027552
686.000000	0.031267
685.000000	0.035382
684.000000	0.038731
683.000000	0.041256
682.000000	0.044506
681.000000	0.046971
680.000000	0.048756
679.000000	0.050930
678.000000	0.052635
677.000000	0.053920
676.000000	0.054860
675.000000	0.055556
674.000000	0.055932
673.000000	0.055720
672.000000	0.055132
671.000000	0.054382
670.000000	0.052756
669.000000	0.050710
668.000000	0.048902
667.000000	0.046773
666.000000	0.044134
665.000000	0.041592
664.000000	0.038745
663.000000	0.035661
662.000000	0.032779
661.000000	0.030532
660.000000	0.028062
659.000000	0.025380
658.000000	0.023093
657.000000	0.021092
656.000000	0.019275
655.000000	0.018233
654.000000	0.017257
653.000000	0.016662
652.000000	0.016352
651.000000	0.015869
650.000000	0.015069
649.000000	0.015042
648.000000	0.014913
647.000000	0.014841
646.000000	0.014769
645.000000	0.014337
644.000000	0.013986
643.000000	0.013989
642.000000	0.013960
641.000000	0.014529
640.000000	0.014584
639.000000	0.014448
638.000000	0.014467
637.000000	0.014363
636.000000	0.014296
635.000000	0.014516
634.000000	0.015007
633.000000	0.015088
632.000000	0.014770
631.000000	0.013938
630.000000	0.014119
629.000000	0.014578
628.000000	0.014420
627.000000	0.013752
626.000000	0.013800
625.000000	0.013626
624.000000	0.013443
623.000000	0.013190
622.000000	0.013226
621.000000	0.013628
620.000000	0.013445
619.000000	0.012805
618.000000	0.012503
617.000000	0.012250
616.000000	0.011662
615.000000	0.011075
614.000000	0.010308
613.000000	0.010241
612.000000	0.009552
611.000000	0.009739
610.000000	0.009487
609.000000	0.008076
608.000000	0.008066
607.000000	0.008317
606.000000	0.008232
605.000000	0.007970
604.000000	0.007354
603.000000	0.008227
602.000000	0.008430
601.000000	0.008892
600.000000	0.008621
599.000000	0.008933
598.000000	0.009240
597.000000	0.008900
596.000000	0.009443
595.000000	0.010305
594.000000	0.010856
593.000000	0.010818
592.000000	0.010924
591.000000	0.011204
590.000000	0.010839
589.000000	0.011444
588.000000	0.011354
587.000000	0.011319
586.000000	0.011645
585.000000	0.011192
584.000000	0.010744
583.000000	0.011003
582.000000	0.011353
581.000000	0.011089
580.000000	0.011283
579.000000	0.010932
578.000000	0.010962
577.000000	0.011508
576.000000	0.011301
575.000000	0.011446
574.000000	0.011834
573.000000	0.012386
572.000000	0.012675
571.000000	0.012999
570.000000	0.013058
569.000000	0.013956
568.000000	0.014264
567.000000	0.015307
566.000000	0.016225
565.000000	0.016837
564.000000	0.017393
563.000000	0.018157
562.000000	0.019141
561.000000	0.020833
560.000000	0.021653
559.000000	0.022885
558.000000	0.023853
557.000000	0.025063
556.000000	0.026345
555.000000	0.027102
554.000000	0.028404
553.000000	0.029564
552.000000	0.030428
551.000000	0.031946
550.000000	0.031953
549.000000	0.033795
548.000000	0.034723
547.000000	0.035676
546.000000	0.036553
545.000000	0.037270
544.000000	0.038381
543.000000	0.038814
542.000000	0.039831
541.000000	0.040461
540.000000	0.040861
539.000000	0.041900
538.000000	0.042852
537.000000	0.043643
536.000000	0.044427
535.000000	0.045170
534.000000	0.045600
533.000000	0.046162
532.000000	0.046993
531.000000	0.047611
530.000000	0.048017
529.000000	0.048844
528.000000	0.049452
527.000000	0.050041
526.000000	0.050402
525.000000	0.050719
524.000000	0.051461
523.000000	0.051841
522.000000	0.052052
521.000000	0.052369
520.000000	0.052432
519.000000	0.052899
518.000000	0.053709
517.000000	0.054231
516.000000	0.054334
515.000000	0.054620
514.000000	0.055288
513.000000	0.055249
512.000000	0.055923
511.000000	0.056868
510.000000	0.057567
509.000000	0.057535
508.000000	0.058416
507.000000	0.059038
506.000000	0.060094
505.000000	0.060672
504.000000	0.061290
503.000000	0.062074
502.000000	0.063019
501.000000	0.063689
500.000000	0.064630
499.000000	0.064837
498.000000	0.065835
497.000000	0.066420
496.000000	0.066827
495.000000	0.067813
494.000000	0.068205
493.000000	0.068445
492.000000	0.069321
491.000000	0.069619
490.000000	0.069503
489.000000	0.070309
488.000000	0.070666
487.000000	0.071701
486.000000	0.071747
485.000000	0.072314
484.000000	0.072866
483.000000	0.072915
482.000000	0.073733
481.000000	0.074086
480.000000	0.074768
479.000000	0.075711
478.000000	0.076443
477.000000	0.076720
476.000000	0.077984
475.000000	0.078654
474.000000	0.079151
473.000000	0.079858
472.000000	0.080270
471.000000	0.081137
470.000000	0.081694
469.000000	0.082378
468.000000	0.083139
467.000000	0.082973
466.000000	0.083092
465.000000	0.083794
464.000000	0.084614
463.000000	0.085002
462.000000	0.084528
461.000000	0.084333
460.000000	0.084550
459.000000	0.085009
458.000000	0.085484
457.000000	0.085127
456.000000	0.084704
455.000000	0.084778
454.000000	0.084889
453.000000	0.084897
452.000000	0.085537
451.000000	0.086020
450.000000	0.086331
449.000000	0.086748
448.000000	0.087509
447.000000	0.088032
446.000000	0.088640
445.000000	0.088917
444.000000	0.089946
443.000000	0.090181
442.000000	0.090912
441.000000	0.092106
440.000000	0.092533
439.000000	0.092807
438.000000	0.093452
437.000000	0.093956
436.000000	0.093411
435.000000	0.093745
434.000000	0.094794
433.000000	0.095504
432.000000	0.095958
431.000000	0.096095
430.000000	0.096712
429.000000	0.097741
428.000000	0.098228
427.000000	0.098778
426.000000	0.099302
425.000000	0.099865
424.000000	0.100349
423.000000	0.101247
422.000000	0.102224
421.000000	0.102817
420.000000	0.104105
419.000000	0.104729
418.000000	0.105056
417.000000	0.106238
416.000000	0.106743
415.000000	0.106998
414.000000	0.107357
413.000000	0.106046
412.000000	0.104656
411.000000	0.104567
410.000000	0.103620
409.000000	0.101809
408.000000	0.101015
407.000000	0.099829
406.000000	0.097885
405.000000	0.096923
404.000000	0.095900
403.000000	0.093722
402.000000	0.092788
401.000000	0.093009
400.000000	0.091413
399.000000	0.090265
398.000000	0.089759
397.000000	0.088822
396.000000	0.087889
395.000000	0.087269
394.000000	0.086445
393.000000	0.085836
392.000000	0.086361
391.000000	0.085722
390.000000	0.085284
389.000000	0.085161
388.000000	0.084782
387.000000	0.084891
386.000000	0.085113
385.000000	0.084250
384.000000	0.083761
383.000000	0.084455
382.000000	0.085500
381.000000	0.084306
380.000000	0.084219
379.000000	0.085342
378.000000	0.085037
377.000000	0.081978
376.000000	0.082214
375.000000	0.081172
374.000000	0.080602
373.000000	0.083074
372.000000	0.082132
371.000000	0.080706
370.000000	0.082649
369.000000	0.083585
368.000000	0.082861
367.000000	0.084644
366.000000	0.083965
365.000000	0.082831
364.000000	0.084124
363.000000	0.086195
362.000000	0.088252
361.000000	0.086404
360.000000	0.086969
359.000000	0.086679
358.000000	0.087431
357.000000	0.089148
356.000000	0.090024
355.000000	0.093189
354.000000	0.095197
353.000000	0.093026
352.000000	0.096164
351.000000	0.097342
350.000000	0.099961
349.000000	0.101982
348.000000	0.105768
347.000000	0.107019
346.000000	0.109265
345.000000	0.112380
344.000000	0.113017
343.000000	0.116312
342.000000	0.118172
341.000000	0.122092
340.000000	0.122947
339.000000	0.123880
338.000000	0.128601
337.000000	0.129660
336.000000	0.130071
335.000000	0.132478
334.000000	0.127975
333.000000	0.131820
332.000000	0.131042
331.000000	0.133721
330.000000	0.136244
329.000000	0.135112
328.000000	0.137728
327.000000	0.141822
326.000000	0.141336
325.000000	0.139564
324.000000	0.146110
323.000000	0.146007
322.000000	0.143226
321.000000	0.147377
320.000000	0.151481
319.000000	0.149817
318.000000	0.150470
317.000000	0.149322
316.000000	0.151363
315.000000	0.153087
314.000000	0.153831
313.000000	0.158736
312.000000	0.158525
311.000000	0.161783
310.000000	0.164909
309.000000	0.168266
308.000000	0.171691
307.000000	0.174822
306.000000	0.181065
305.000000	0.188416
304.000000	0.193096
303.000000	0.201721
302.000000	0.210119
301.000000	0.219468
300.000000	0.232041
