PE UV       SUBTECH     SPECTRUM    ASCII       PEDS        4.00        
   -1
PETIT_61.Sample.Raw.asc
20/12/16
09:31:37.00
20/12/16
09:31:37.00
CNRS
RCC0100_C_D2
300.000000
1
Lambda 850
850L1011221
PerkinElmer UV WinLab 6.0.3.0730 / 1.61.00 Lambda 800

0
0
2
0
0
UV/VIS
1
1
1
RBeamAtt,SBeamAtt,150mm sphere / downward view
0
0
0
0
Fix
 
0
0.2
0
0
0
 
 
 
0
 
0
319.2
0
Front
50
 
S:100 R:100
 
0
0
0
 
0
 
 
 
0
 
 
0
0
0
0
0
 
 
 
 
0
0


#HDR
-1
-1
#GR
nm
A
1.0
0.0
800.000000
-1.000000
501
8
0.189706
-0.014998
#DATA
800.000000	-0.013201
799.000000	-0.014227
798.000000	-0.012928
797.000000	-0.012558
796.000000	-0.013397
795.000000	-0.013685
794.000000	-0.013259
793.000000	-0.013716
792.000000	-0.012931
791.000000	-0.013597
790.000000	-0.013735
789.000000	-0.013747
788.000000	-0.013291
787.000000	-0.012486
786.000000	-0.013163
785.000000	-0.014301
784.000000	-0.013033
783.000000	-0.013936
782.000000	-0.013044
781.000000	-0.013221
780.000000	-0.012311
779.000000	-0.013297
778.000000	-0.013857
777.000000	-0.013026
776.000000	-0.012977
775.000000	-0.013911
774.000000	-0.013585
773.000000	-0.012746
772.000000	-0.012706
771.000000	-0.012585
770.000000	-0.013013
769.000000	-0.012873
768.000000	-0.013873
767.000000	-0.013084
766.000000	-0.012901
765.000000	-0.014029
764.000000	-0.013636
763.000000	-0.013160
762.000000	-0.013102
761.000000	-0.013334
760.000000	-0.013325
759.000000	-0.013409
758.000000	-0.012310
757.000000	-0.012323
756.000000	-0.012290
755.000000	-0.013393
754.000000	-0.012886
753.000000	-0.013377
752.000000	-0.013858
751.000000	-0.013378
750.000000	-0.013269
749.000000	-0.013244
748.000000	-0.013404
747.000000	-0.012442
746.000000	-0.012563
745.000000	-0.013004
744.000000	-0.013535
743.000000	-0.013027
742.000000	-0.012722
741.000000	-0.013479
740.000000	-0.013717
739.000000	-0.013657
738.000000	-0.013097
737.000000	-0.013694
736.000000	-0.013689
735.000000	-0.012740
734.000000	-0.014097
733.000000	-0.014174
732.000000	-0.013795
731.000000	-0.013326
730.000000	-0.014149
729.000000	-0.014471
728.000000	-0.013436
727.000000	-0.014000
726.000000	-0.014333
725.000000	-0.014144
724.000000	-0.013652
723.000000	-0.013482
722.000000	-0.013748
721.000000	-0.014284
720.000000	-0.014998
719.000000	-0.014028
718.000000	-0.013594
717.000000	-0.014020
716.000000	-0.013903
715.000000	-0.013021
714.000000	-0.012936
713.000000	-0.013258
712.000000	-0.013343
711.000000	-0.013045
710.000000	-0.013320
709.000000	-0.012877
708.000000	-0.013293
707.000000	-0.013160
706.000000	-0.012283
705.000000	-0.012249
704.000000	-0.012014
703.000000	-0.011296
702.000000	-0.010635
701.000000	-0.009591
700.000000	-0.008678
699.000000	-0.008388
698.000000	-0.007296
697.000000	-0.006021
696.000000	-0.003853
695.000000	-0.001680
694.000000	0.000799
693.000000	0.003374
692.000000	0.006915
691.000000	0.010955
690.000000	0.015686
689.000000	0.021126
688.000000	0.026649
687.000000	0.033013
686.000000	0.039384
685.000000	0.046266
684.000000	0.053192
683.000000	0.059454
682.000000	0.065085
681.000000	0.070894
680.000000	0.075286
679.000000	0.079237
678.000000	0.083368
677.000000	0.086296
676.000000	0.088079
675.000000	0.089189
674.000000	0.089427
673.000000	0.087967
672.000000	0.085786
671.000000	0.082759
670.000000	0.078680
669.000000	0.074034
668.000000	0.068765
667.000000	0.063727
666.000000	0.058669
665.000000	0.053169
664.000000	0.048002
663.000000	0.042756
662.000000	0.038000
661.000000	0.034147
660.000000	0.030399
659.000000	0.027371
658.000000	0.024688
657.000000	0.022170
656.000000	0.020282
655.000000	0.019165
654.000000	0.017689
653.000000	0.016643
652.000000	0.016148
651.000000	0.015511
650.000000	0.015249
649.000000	0.015425
648.000000	0.016031
647.000000	0.016808
646.000000	0.017514
645.000000	0.018106
644.000000	0.019126
643.000000	0.020045
642.000000	0.020710
641.000000	0.021444
640.000000	0.022074
639.000000	0.021791
638.000000	0.021685
637.000000	0.021794
636.000000	0.021402
635.000000	0.021121
634.000000	0.021119
633.000000	0.021183
632.000000	0.020811
631.000000	0.019529
630.000000	0.019271
629.000000	0.018819
628.000000	0.018195
627.000000	0.017436
626.000000	0.016830
625.000000	0.016709
624.000000	0.016456
623.000000	0.015610
622.000000	0.015588
621.000000	0.016137
620.000000	0.015931
619.000000	0.015843
618.000000	0.015255
617.000000	0.015232
616.000000	0.015082
615.000000	0.015198
614.000000	0.014620
613.000000	0.014511
612.000000	0.014440
611.000000	0.014744
610.000000	0.014765
609.000000	0.014022
608.000000	0.014431
607.000000	0.014861
606.000000	0.015017
605.000000	0.015314
604.000000	0.015637
603.000000	0.016596
602.000000	0.016964
601.000000	0.017326
600.000000	0.017917
599.000000	0.018729
598.000000	0.018457
597.000000	0.018516
596.000000	0.019169
595.000000	0.019857
594.000000	0.020314
593.000000	0.020213
592.000000	0.020129
591.000000	0.020297
590.000000	0.019730
589.000000	0.019166
588.000000	0.018828
587.000000	0.017803
586.000000	0.017748
585.000000	0.016751
584.000000	0.016191
583.000000	0.015443
582.000000	0.014925
581.000000	0.014085
580.000000	0.013338
579.000000	0.012890
578.000000	0.012162
577.000000	0.011929
576.000000	0.010692
575.000000	0.010682
574.000000	0.010624
573.000000	0.010450
572.000000	0.010061
571.000000	0.009909
570.000000	0.009692
569.000000	0.009461
568.000000	0.009569
567.000000	0.010030
566.000000	0.010262
565.000000	0.010393
564.000000	0.010917
563.000000	0.011076
562.000000	0.011804
561.000000	0.012941
560.000000	0.013414
559.000000	0.014137
558.000000	0.015040
557.000000	0.015904
556.000000	0.017026
555.000000	0.017757
554.000000	0.019122
553.000000	0.020123
552.000000	0.021272
551.000000	0.022703
550.000000	0.022858
549.000000	0.024920
548.000000	0.025952
547.000000	0.027832
546.000000	0.028909
545.000000	0.030300
544.000000	0.032203
543.000000	0.032908
542.000000	0.034514
541.000000	0.035538
540.000000	0.037173
539.000000	0.038403
538.000000	0.039930
537.000000	0.041811
536.000000	0.042987
535.000000	0.044664
534.000000	0.045959
533.000000	0.047583
532.000000	0.049182
531.000000	0.050519
530.000000	0.051885
529.000000	0.053452
528.000000	0.055451
527.000000	0.057273
526.000000	0.058741
525.000000	0.059784
524.000000	0.060950
523.000000	0.062442
522.000000	0.063789
521.000000	0.065533
520.000000	0.066751
519.000000	0.068032
518.000000	0.070069
517.000000	0.072069
516.000000	0.073266
515.000000	0.074200
514.000000	0.076211
513.000000	0.077652
512.000000	0.079230
511.000000	0.080944
510.000000	0.082782
509.000000	0.084463
508.000000	0.086430
507.000000	0.088740
506.000000	0.089972
505.000000	0.092106
504.000000	0.094525
503.000000	0.096920
502.000000	0.099721
501.000000	0.101964
500.000000	0.105045
499.000000	0.107839
498.000000	0.110381
497.000000	0.113580
496.000000	0.116638
495.000000	0.120181
494.000000	0.123659
493.000000	0.126834
492.000000	0.130235
491.000000	0.133236
490.000000	0.136078
489.000000	0.138855
488.000000	0.142323
487.000000	0.144961
486.000000	0.147031
485.000000	0.149460
484.000000	0.151745
483.000000	0.153515
482.000000	0.154977
481.000000	0.156010
480.000000	0.157166
479.000000	0.158342
478.000000	0.159567
477.000000	0.160524
476.000000	0.161869
475.000000	0.162976
474.000000	0.163558
473.000000	0.164499
472.000000	0.165436
471.000000	0.166570
470.000000	0.167551
469.000000	0.168535
468.000000	0.169069
467.000000	0.169269
466.000000	0.169579
465.000000	0.170940
464.000000	0.171641
463.000000	0.171936
462.000000	0.172148
461.000000	0.172314
460.000000	0.172469
459.000000	0.172457
458.000000	0.172769
457.000000	0.172879
456.000000	0.172707
455.000000	0.173282
454.000000	0.172942
453.000000	0.173454
452.000000	0.173331
451.000000	0.173927
450.000000	0.175009
449.000000	0.175769
448.000000	0.177309
447.000000	0.178300
446.000000	0.179551
445.000000	0.180904
444.000000	0.182802
443.000000	0.184917
442.000000	0.186419
441.000000	0.187681
440.000000	0.188380
439.000000	0.189204
438.000000	0.189706
437.000000	0.189389
436.000000	0.188741
435.000000	0.187347
434.000000	0.186073
433.000000	0.185042
432.000000	0.183272
431.000000	0.180859
430.000000	0.179352
429.000000	0.178150
428.000000	0.176149
427.000000	0.174592
426.000000	0.173264
425.000000	0.171819
424.000000	0.171052
423.000000	0.169976
422.000000	0.169124
421.000000	0.168634
420.000000	0.168469
419.000000	0.168028
418.000000	0.167433
417.000000	0.166895
416.000000	0.166301
415.000000	0.166171
414.000000	0.165321
413.000000	0.164482
412.000000	0.163662
411.000000	0.162407
410.000000	0.160384
409.000000	0.158626
408.000000	0.157197
407.000000	0.155108
406.000000	0.152717
405.000000	0.150872
404.000000	0.149114
403.000000	0.147248
402.000000	0.146023
401.000000	0.145262
400.000000	0.144039
399.000000	0.142336
398.000000	0.141578
397.000000	0.141012
396.000000	0.140641
395.000000	0.140412
394.000000	0.138959
393.000000	0.139017
392.000000	0.138729
391.000000	0.137811
390.000000	0.137071
389.000000	0.136981
388.000000	0.136538
387.000000	0.136474
386.000000	0.135689
385.000000	0.134734
384.000000	0.134726
383.000000	0.135276
382.000000	0.134823
381.000000	0.133826
380.000000	0.131972
379.000000	0.133383
378.000000	0.131211
377.000000	0.128253
376.000000	0.127346
375.000000	0.127815
374.000000	0.125926
373.000000	0.126606
372.000000	0.125958
371.000000	0.125208
370.000000	0.124516
369.000000	0.126124
368.000000	0.125772
367.000000	0.125174
366.000000	0.124408
365.000000	0.122751
364.000000	0.125635
363.000000	0.127103
362.000000	0.127661
361.000000	0.125438
360.000000	0.126690
359.000000	0.125473
358.000000	0.126249
357.000000	0.125719
356.000000	0.125410
355.000000	0.128752
354.000000	0.128959
353.000000	0.129103
352.000000	0.130553
351.000000	0.129082
350.000000	0.130436
349.000000	0.131162
348.000000	0.133136
347.000000	0.131435
346.000000	0.134602
345.000000	0.136233
344.000000	0.136962
343.000000	0.136266
342.000000	0.137519
341.000000	0.137399
340.000000	0.137803
339.000000	0.141591
338.000000	0.144142
337.000000	0.140229
336.000000	0.141159
335.000000	0.143246
334.000000	0.141926
333.000000	0.143359
332.000000	0.145046
331.000000	0.144695
330.000000	0.141562
329.000000	0.142564
328.000000	0.145445
327.000000	0.148769
326.000000	0.147247
325.000000	0.143163
324.000000	0.151976
323.000000	0.151865
322.000000	0.149287
321.000000	0.151221
320.000000	0.155971
319.000000	0.153252
318.000000	0.151676
317.000000	0.151898
316.000000	0.152509
315.000000	0.154786
314.000000	0.154433
313.000000	0.159215
312.000000	0.158695
311.000000	0.160217
310.000000	0.163415
309.000000	0.165030
308.000000	0.166623
307.000000	0.167386
306.000000	0.169192
305.000000	0.173066
304.000000	0.175580
303.000000	0.178300
302.000000	0.181934
301.000000	0.185228
300.000000	0.187417
