PE UV       SUBTECH     SPECTRUM    ASCII       PEDS        4.00        
   -1
PETIT_72.Sample.Raw.asc
20/12/16
10:12:28.00
20/12/16
10:12:28.00
CNRS
RCC4213_B_D2
300.000000
1
Lambda 850
850L1011221
PerkinElmer UV WinLab 6.0.3.0730 / 1.61.00 Lambda 800

0
0
2
0
0
UV/VIS
1
1
1
RBeamAtt,SBeamAtt,150mm sphere / downward view
0
0
0
0
Fix
 
0
0.2
0
0
0
 
 
 
0
 
0
319.2
0
Front
50
 
S:100 R:100
 
0
0
0
 
0
 
 
 
0
 
 
0
0
0
0
0
 
 
 
 
0
0


#HDR
-1
-1
#GR
nm
A
1.0
0.0
800.000000
-1.000000
501
8
0.076409
-0.015405
#DATA
800.000000	-0.012903
799.000000	-0.014482
798.000000	-0.014376
797.000000	-0.013397
796.000000	-0.013003
795.000000	-0.014159
794.000000	-0.012849
793.000000	-0.014602
792.000000	-0.014131
791.000000	-0.014409
790.000000	-0.013726
789.000000	-0.015016
788.000000	-0.014234
787.000000	-0.012493
786.000000	-0.014232
785.000000	-0.015182
784.000000	-0.014136
783.000000	-0.014394
782.000000	-0.015184
781.000000	-0.014824
780.000000	-0.012944
779.000000	-0.014304
778.000000	-0.014308
777.000000	-0.012615
776.000000	-0.012321
775.000000	-0.013307
774.000000	-0.013456
773.000000	-0.013492
772.000000	-0.014194
771.000000	-0.013091
770.000000	-0.013386
769.000000	-0.013504
768.000000	-0.014869
767.000000	-0.014005
766.000000	-0.013789
765.000000	-0.014075
764.000000	-0.013840
763.000000	-0.014442
762.000000	-0.013972
761.000000	-0.013881
760.000000	-0.015002
759.000000	-0.014526
758.000000	-0.013263
757.000000	-0.013067
756.000000	-0.014097
755.000000	-0.014753
754.000000	-0.013819
753.000000	-0.013125
752.000000	-0.013755
751.000000	-0.013845
750.000000	-0.013772
749.000000	-0.012843
748.000000	-0.014252
747.000000	-0.013924
746.000000	-0.013436
745.000000	-0.013954
744.000000	-0.013603
743.000000	-0.014194
742.000000	-0.013385
741.000000	-0.013803
740.000000	-0.014321
739.000000	-0.013963
738.000000	-0.014116
737.000000	-0.014226
736.000000	-0.014284
735.000000	-0.013744
734.000000	-0.015002
733.000000	-0.014994
732.000000	-0.013862
731.000000	-0.013526
730.000000	-0.014296
729.000000	-0.015060
728.000000	-0.014944
727.000000	-0.015049
726.000000	-0.014959
725.000000	-0.014530
724.000000	-0.014562
723.000000	-0.015001
722.000000	-0.014653
721.000000	-0.015405
720.000000	-0.015342
719.000000	-0.014391
718.000000	-0.014487
717.000000	-0.014844
716.000000	-0.014483
715.000000	-0.014030
714.000000	-0.013991
713.000000	-0.014357
712.000000	-0.013947
711.000000	-0.013323
710.000000	-0.013808
709.000000	-0.014117
708.000000	-0.014508
707.000000	-0.013602
706.000000	-0.012413
705.000000	-0.012695
704.000000	-0.012620
703.000000	-0.011825
702.000000	-0.011542
701.000000	-0.010601
700.000000	-0.009793
699.000000	-0.009409
698.000000	-0.008271
697.000000	-0.006936
696.000000	-0.005323
695.000000	-0.003068
694.000000	-0.001384
693.000000	0.000480
692.000000	0.003285
691.000000	0.006135
690.000000	0.009376
689.000000	0.012608
688.000000	0.015927
687.000000	0.019429
686.000000	0.022650
685.000000	0.026343
684.000000	0.029780
683.000000	0.033135
682.000000	0.035870
681.000000	0.038486
680.000000	0.041098
679.000000	0.043390
678.000000	0.045221
677.000000	0.046688
676.000000	0.048071
675.000000	0.048902
674.000000	0.049140
673.000000	0.048627
672.000000	0.047546
671.000000	0.046158
670.000000	0.044251
669.000000	0.041852
668.000000	0.039010
667.000000	0.036442
666.000000	0.033990
665.000000	0.030877
664.000000	0.027952
663.000000	0.025187
662.000000	0.022204
661.000000	0.019755
660.000000	0.017233
659.000000	0.014506
658.000000	0.012433
657.000000	0.010392
656.000000	0.008137
655.000000	0.007123
654.000000	0.006203
653.000000	0.004811
652.000000	0.004059
651.000000	0.003365
650.000000	0.002472
649.000000	0.002067
648.000000	0.002420
647.000000	0.002423
646.000000	0.002207
645.000000	0.002240
644.000000	0.002513
643.000000	0.003144
642.000000	0.003266
641.000000	0.003995
640.000000	0.004252
639.000000	0.004337
638.000000	0.004746
637.000000	0.005034
636.000000	0.004973
635.000000	0.005045
634.000000	0.005448
633.000000	0.005796
632.000000	0.005475
631.000000	0.004887
630.000000	0.005104
629.000000	0.005066
628.000000	0.004743
627.000000	0.004522
626.000000	0.004696
625.000000	0.004185
624.000000	0.004192
623.000000	0.003896
622.000000	0.003810
621.000000	0.004317
620.000000	0.003942
619.000000	0.003830
618.000000	0.003134
617.000000	0.002993
616.000000	0.002632
615.000000	0.002181
614.000000	0.001500
613.000000	0.001131
612.000000	0.000707
611.000000	0.000335
610.000000	0.000176
609.000000	-0.000319
608.000000	-0.000622
607.000000	-0.001107
606.000000	-0.001343
605.000000	-0.001286
604.000000	-0.001852
603.000000	-0.001705
602.000000	-0.001595
601.000000	-0.001675
600.000000	-0.001875
599.000000	-0.001511
598.000000	-0.001607
597.000000	-0.001952
596.000000	-0.001353
595.000000	-0.000861
594.000000	-0.000631
593.000000	-0.000333
592.000000	-0.000171
591.000000	0.000391
590.000000	0.000550
589.000000	0.000917
588.000000	0.000401
587.000000	0.000283
586.000000	0.000584
585.000000	0.000459
584.000000	0.000552
583.000000	0.000959
582.000000	0.001132
581.000000	0.000815
580.000000	0.001052
579.000000	0.000449
578.000000	0.000804
577.000000	0.001455
576.000000	0.001058
575.000000	0.001059
574.000000	0.001507
573.000000	0.001804
572.000000	0.001781
571.000000	0.002185
570.000000	0.002432
569.000000	0.002596
568.000000	0.003046
567.000000	0.003489
566.000000	0.004270
565.000000	0.004235
564.000000	0.004387
563.000000	0.004914
562.000000	0.005717
561.000000	0.006408
560.000000	0.007741
559.000000	0.008462
558.000000	0.009181
557.000000	0.009601
556.000000	0.009744
555.000000	0.010946
554.000000	0.011893
553.000000	0.012633
552.000000	0.013418
551.000000	0.014486
550.000000	0.014295
549.000000	0.015335
548.000000	0.016818
547.000000	0.016697
546.000000	0.017435
545.000000	0.018241
544.000000	0.018866
543.000000	0.019081
542.000000	0.020281
541.000000	0.020321
540.000000	0.020907
539.000000	0.021699
538.000000	0.021899
537.000000	0.022919
536.000000	0.023304
535.000000	0.023732
534.000000	0.023828
533.000000	0.024112
532.000000	0.024414
531.000000	0.024949
530.000000	0.025067
529.000000	0.025717
528.000000	0.026275
527.000000	0.026344
526.000000	0.026312
525.000000	0.026887
524.000000	0.027306
523.000000	0.027734
522.000000	0.027794
521.000000	0.028700
520.000000	0.028969
519.000000	0.028850
518.000000	0.029703
517.000000	0.030147
516.000000	0.030578
515.000000	0.031013
514.000000	0.031705
513.000000	0.032226
512.000000	0.033139
511.000000	0.033337
510.000000	0.034078
509.000000	0.034802
508.000000	0.035508
507.000000	0.036000
506.000000	0.036712
505.000000	0.037495
504.000000	0.038742
503.000000	0.039683
502.000000	0.040318
501.000000	0.041245
500.000000	0.042380
499.000000	0.043108
498.000000	0.042723
497.000000	0.043536
496.000000	0.043397
495.000000	0.044901
494.000000	0.045611
493.000000	0.045887
492.000000	0.046116
491.000000	0.046410
490.000000	0.046515
489.000000	0.047101
488.000000	0.047264
487.000000	0.047154
486.000000	0.046951
485.000000	0.047216
484.000000	0.047459
483.000000	0.047380
482.000000	0.047802
481.000000	0.047556
480.000000	0.047878
479.000000	0.048040
478.000000	0.048320
477.000000	0.049075
476.000000	0.050112
475.000000	0.050876
474.000000	0.051785
473.000000	0.052749
472.000000	0.053511
471.000000	0.054732
470.000000	0.055858
469.000000	0.056989
468.000000	0.057911
467.000000	0.058632
466.000000	0.059261
465.000000	0.059881
464.000000	0.061117
463.000000	0.062075
462.000000	0.062323
461.000000	0.062206
460.000000	0.062549
459.000000	0.063154
458.000000	0.063680
457.000000	0.063947
456.000000	0.064109
455.000000	0.064175
454.000000	0.064263
453.000000	0.064801
452.000000	0.065117
451.000000	0.066026
450.000000	0.066608
449.000000	0.066851
448.000000	0.068919
447.000000	0.070142
446.000000	0.070503
445.000000	0.070872
444.000000	0.072346
443.000000	0.073906
442.000000	0.074832
441.000000	0.075161
440.000000	0.076310
439.000000	0.076409
438.000000	0.076158
437.000000	0.076303
436.000000	0.075857
435.000000	0.075029
434.000000	0.075115
433.000000	0.074968
432.000000	0.073924
431.000000	0.072921
430.000000	0.072774
429.000000	0.072597
428.000000	0.071648
427.000000	0.071334
426.000000	0.070588
425.000000	0.069347
424.000000	0.069034
423.000000	0.069067
422.000000	0.068481
421.000000	0.067995
420.000000	0.068245
419.000000	0.067746
418.000000	0.066960
417.000000	0.066798
416.000000	0.066778
415.000000	0.066163
414.000000	0.065651
413.000000	0.064906
412.000000	0.063720
411.000000	0.062830
410.000000	0.061872
409.000000	0.060726
408.000000	0.059383
407.000000	0.057815
406.000000	0.056649
405.000000	0.056015
404.000000	0.054700
403.000000	0.053480
402.000000	0.053022
401.000000	0.052367
400.000000	0.051545
399.000000	0.050607
398.000000	0.049936
397.000000	0.048755
396.000000	0.048289
395.000000	0.047901
394.000000	0.047409
393.000000	0.047166
392.000000	0.046764
391.000000	0.046069
390.000000	0.045113
389.000000	0.044872
388.000000	0.044172
387.000000	0.043395
386.000000	0.044085
385.000000	0.043229
384.000000	0.041607
383.000000	0.041651
382.000000	0.041810
381.000000	0.040224
380.000000	0.039035
379.000000	0.039739
378.000000	0.039501
377.000000	0.035308
376.000000	0.035001
375.000000	0.032250
374.000000	0.031516
373.000000	0.032527
372.000000	0.030575
371.000000	0.029911
370.000000	0.028908
369.000000	0.028862
368.000000	0.029495
367.000000	0.028440
366.000000	0.027039
365.000000	0.026322
364.000000	0.026847
363.000000	0.026930
362.000000	0.027896
361.000000	0.026728
360.000000	0.025378
359.000000	0.024636
358.000000	0.024401
357.000000	0.022578
356.000000	0.023546
355.000000	0.024234
354.000000	0.024749
353.000000	0.023283
352.000000	0.024386
351.000000	0.023496
350.000000	0.023956
349.000000	0.022212
348.000000	0.023875
347.000000	0.024933
346.000000	0.025534
345.000000	0.024628
344.000000	0.024519
343.000000	0.024331
342.000000	0.023922
341.000000	0.026461
340.000000	0.026973
339.000000	0.026283
338.000000	0.030005
337.000000	0.028352
336.000000	0.025813
335.000000	0.026349
334.000000	0.025884
333.000000	0.028202
332.000000	0.028545
331.000000	0.028366
330.000000	0.026017
329.000000	0.028287
328.000000	0.028576
327.000000	0.028890
326.000000	0.026446
325.000000	0.024911
324.000000	0.032249
323.000000	0.029810
322.000000	0.028959
321.000000	0.032871
320.000000	0.030793
319.000000	0.034108
318.000000	0.030798
317.000000	0.027885
316.000000	0.031036
315.000000	0.031663
314.000000	0.033333
313.000000	0.034365
312.000000	0.034574
311.000000	0.037073
310.000000	0.037353
309.000000	0.039539
308.000000	0.040377
307.000000	0.042047
306.000000	0.046826
305.000000	0.048064
304.000000	0.049129
303.000000	0.053473
302.000000	0.059886
301.000000	0.060322
300.000000	0.065749
