PE UV       SUBTECH     SPECTRUM    ASCII       PEDS        4.00        
   -1
PETIT_75.Sample.Raw.asc
20/12/16
10:53:02.00
20/12/16
10:53:02.00
CNRS
RCC0156_C_DM
300.000000
1
Lambda 850
850L1011221
PerkinElmer UV WinLab 6.0.3.0730 / 1.61.00 Lambda 800

0
0
2
0
0
UV/VIS
1
1
1
RBeamAtt,SBeamAtt,150mm sphere / downward view
0
0
0
0
Fix
 
0
0.2
0
0
0
 
 
 
0
 
0
319.2
0
Front
50
 
S:100 R:100
 
0
0
0
 
0
 
 
 
0
 
 
0
0
0
0
0
 
 
 
 
0
0


#HDR
-1
-1
#GR
nm
A
1.0
0.0
800.000000
-1.000000
501
8
0.152537
-0.014916
#DATA
800.000000	-0.012658
799.000000	-0.013058
798.000000	-0.012565
797.000000	-0.012747
796.000000	-0.012179
795.000000	-0.013387
794.000000	-0.013314
793.000000	-0.012983
792.000000	-0.012729
791.000000	-0.013658
790.000000	-0.012345
789.000000	-0.012981
788.000000	-0.012883
787.000000	-0.011705
786.000000	-0.013508
785.000000	-0.013831
784.000000	-0.013388
783.000000	-0.013796
782.000000	-0.013178
781.000000	-0.014541
780.000000	-0.013551
779.000000	-0.013554
778.000000	-0.013477
777.000000	-0.011968
776.000000	-0.012032
775.000000	-0.013475
774.000000	-0.013169
773.000000	-0.013026
772.000000	-0.013678
771.000000	-0.013138
770.000000	-0.013541
769.000000	-0.013671
768.000000	-0.014513
767.000000	-0.013049
766.000000	-0.012420
765.000000	-0.012706
764.000000	-0.013482
763.000000	-0.013529
762.000000	-0.012149
761.000000	-0.013282
760.000000	-0.013621
759.000000	-0.012997
758.000000	-0.012893
757.000000	-0.012670
756.000000	-0.013460
755.000000	-0.013356
754.000000	-0.013113
753.000000	-0.013173
752.000000	-0.013066
751.000000	-0.013198
750.000000	-0.014114
749.000000	-0.013461
748.000000	-0.013918
747.000000	-0.012965
746.000000	-0.012880
745.000000	-0.013798
744.000000	-0.013823
743.000000	-0.013919
742.000000	-0.013129
741.000000	-0.013522
740.000000	-0.014078
739.000000	-0.013872
738.000000	-0.014025
737.000000	-0.013657
736.000000	-0.013384
735.000000	-0.013408
734.000000	-0.014703
733.000000	-0.013934
732.000000	-0.013096
731.000000	-0.013276
730.000000	-0.014306
729.000000	-0.014916
728.000000	-0.014212
727.000000	-0.014375
726.000000	-0.014422
725.000000	-0.013660
724.000000	-0.013279
723.000000	-0.013768
722.000000	-0.013516
721.000000	-0.014005
720.000000	-0.014372
719.000000	-0.014068
718.000000	-0.013957
717.000000	-0.014078
716.000000	-0.014112
715.000000	-0.013743
714.000000	-0.012992
713.000000	-0.013450
712.000000	-0.013594
711.000000	-0.013514
710.000000	-0.013348
709.000000	-0.012573
708.000000	-0.012643
707.000000	-0.012978
706.000000	-0.012148
705.000000	-0.012265
704.000000	-0.012350
703.000000	-0.011142
702.000000	-0.010172
701.000000	-0.009984
700.000000	-0.009508
699.000000	-0.008979
698.000000	-0.008190
697.000000	-0.006965
696.000000	-0.005751
695.000000	-0.004544
694.000000	-0.003124
693.000000	-0.001345
692.000000	0.001331
691.000000	0.003682
690.000000	0.005973
689.000000	0.008650
688.000000	0.011314
687.000000	0.014412
686.000000	0.017279
685.000000	0.020599
684.000000	0.023854
683.000000	0.026202
682.000000	0.028328
681.000000	0.030389
680.000000	0.032030
679.000000	0.033134
678.000000	0.034612
677.000000	0.036153
676.000000	0.036876
675.000000	0.037413
674.000000	0.037606
673.000000	0.037602
672.000000	0.037019
671.000000	0.036333
670.000000	0.035272
669.000000	0.033726
668.000000	0.031896
667.000000	0.029886
666.000000	0.028049
665.000000	0.026235
664.000000	0.024107
663.000000	0.021856
662.000000	0.019892
661.000000	0.018444
660.000000	0.017134
659.000000	0.016173
658.000000	0.015043
657.000000	0.013442
656.000000	0.012793
655.000000	0.012483
654.000000	0.011589
653.000000	0.011070
652.000000	0.010438
651.000000	0.009437
650.000000	0.008993
649.000000	0.008373
648.000000	0.007721
647.000000	0.006962
646.000000	0.006202
645.000000	0.005671
644.000000	0.005220
643.000000	0.004601
642.000000	0.003631
641.000000	0.003284
640.000000	0.002847
639.000000	0.002709
638.000000	0.002387
637.000000	0.002085
636.000000	0.001396
635.000000	0.001205
634.000000	0.001653
633.000000	0.002132
632.000000	0.001755
631.000000	0.000821
630.000000	0.000829
629.000000	0.001083
628.000000	0.000555
627.000000	0.000343
626.000000	0.000290
625.000000	0.000075
624.000000	0.000148
623.000000	-0.000058
622.000000	-0.000278
621.000000	-0.000184
620.000000	-0.000403
619.000000	-0.000241
618.000000	-0.000899
617.000000	-0.000811
616.000000	-0.001091
615.000000	-0.001226
614.000000	-0.001400
613.000000	-0.001714
612.000000	-0.002177
611.000000	-0.002006
610.000000	-0.001629
609.000000	-0.002611
608.000000	-0.003037
607.000000	-0.002982
606.000000	-0.002741
605.000000	-0.002699
604.000000	-0.002892
603.000000	-0.002732
602.000000	-0.002477
601.000000	-0.002684
600.000000	-0.002937
599.000000	-0.002681
598.000000	-0.003238
597.000000	-0.004158
596.000000	-0.004231
595.000000	-0.003690
594.000000	-0.003840
593.000000	-0.003415
592.000000	-0.003653
591.000000	-0.003637
590.000000	-0.003918
589.000000	-0.003953
588.000000	-0.004719
587.000000	-0.004739
586.000000	-0.004359
585.000000	-0.004930
584.000000	-0.005145
583.000000	-0.005077
582.000000	-0.005300
581.000000	-0.005306
580.000000	-0.005507
579.000000	-0.005647
578.000000	-0.006077
577.000000	-0.005451
576.000000	-0.005939
575.000000	-0.006122
574.000000	-0.006107
573.000000	-0.006170
572.000000	-0.006221
571.000000	-0.006407
570.000000	-0.006061
569.000000	-0.006490
568.000000	-0.006249
567.000000	-0.006255
566.000000	-0.005597
565.000000	-0.005702
564.000000	-0.005925
563.000000	-0.005602
562.000000	-0.005493
561.000000	-0.005133
560.000000	-0.005068
559.000000	-0.004522
558.000000	-0.004644
557.000000	-0.004136
556.000000	-0.003648
555.000000	-0.003961
554.000000	-0.003758
553.000000	-0.003107
552.000000	-0.002825
551.000000	-0.002339
550.000000	-0.002464
549.000000	-0.001675
548.000000	-0.001244
547.000000	-0.000459
546.000000	-0.000079
545.000000	-0.000117
544.000000	0.001067
543.000000	0.000965
542.000000	0.001682
541.000000	0.001798
540.000000	0.002679
539.000000	0.002969
538.000000	0.003725
537.000000	0.004633
536.000000	0.005179
535.000000	0.006183
534.000000	0.006697
533.000000	0.007217
532.000000	0.008309
531.000000	0.009247
530.000000	0.009860
529.000000	0.010995
528.000000	0.012608
527.000000	0.013587
526.000000	0.014688
525.000000	0.016081
524.000000	0.017397
523.000000	0.018708
522.000000	0.020246
521.000000	0.022002
520.000000	0.024025
519.000000	0.025630
518.000000	0.028164
517.000000	0.030164
516.000000	0.032166
515.000000	0.034168
514.000000	0.037322
513.000000	0.039907
512.000000	0.042432
511.000000	0.045316
510.000000	0.047889
509.000000	0.050788
508.000000	0.053572
507.000000	0.056489
506.000000	0.059812
505.000000	0.062298
504.000000	0.065221
503.000000	0.068318
502.000000	0.070949
501.000000	0.073617
500.000000	0.076161
499.000000	0.078155
498.000000	0.081193
497.000000	0.083096
496.000000	0.085038
495.000000	0.087963
494.000000	0.089243
493.000000	0.091691
492.000000	0.093591
491.000000	0.095346
490.000000	0.096762
489.000000	0.098431
488.000000	0.100371
487.000000	0.101810
486.000000	0.102690
485.000000	0.104042
484.000000	0.105518
483.000000	0.105740
482.000000	0.106771
481.000000	0.107201
480.000000	0.107908
479.000000	0.108604
478.000000	0.109668
477.000000	0.110751
476.000000	0.112298
475.000000	0.113344
474.000000	0.114788
473.000000	0.115894
472.000000	0.117299
471.000000	0.119250
470.000000	0.120697
469.000000	0.122416
468.000000	0.123940
467.000000	0.125523
466.000000	0.127597
465.000000	0.129380
464.000000	0.131091
463.000000	0.132682
462.000000	0.134145
461.000000	0.135824
460.000000	0.137010
459.000000	0.138356
458.000000	0.140778
457.000000	0.142762
456.000000	0.144008
455.000000	0.144837
454.000000	0.146637
453.000000	0.147755
452.000000	0.148537
451.000000	0.149834
450.000000	0.150624
449.000000	0.151622
448.000000	0.152395
447.000000	0.151978
446.000000	0.152537
445.000000	0.152141
444.000000	0.151546
443.000000	0.151625
442.000000	0.151368
441.000000	0.150701
440.000000	0.149915
439.000000	0.148831
438.000000	0.147749
437.000000	0.147259
436.000000	0.146493
435.000000	0.145697
434.000000	0.145120
433.000000	0.144581
432.000000	0.143648
431.000000	0.142621
430.000000	0.142307
429.000000	0.141804
428.000000	0.141569
427.000000	0.141018
426.000000	0.139603
425.000000	0.138262
424.000000	0.137601
423.000000	0.136905
422.000000	0.135743
421.000000	0.134496
420.000000	0.134130
419.000000	0.132968
418.000000	0.131601
417.000000	0.130878
416.000000	0.130052
415.000000	0.129174
414.000000	0.128271
413.000000	0.127465
412.000000	0.126796
411.000000	0.126377
410.000000	0.125907
409.000000	0.125313
408.000000	0.124847
407.000000	0.124055
406.000000	0.123372
405.000000	0.123375
404.000000	0.123325
403.000000	0.123027
402.000000	0.123290
401.000000	0.124067
400.000000	0.124525
399.000000	0.124788
398.000000	0.124954
397.000000	0.125043
396.000000	0.124992
395.000000	0.125481
394.000000	0.126357
393.000000	0.126151
392.000000	0.126415
391.000000	0.125759
390.000000	0.125236
389.000000	0.125221
388.000000	0.124149
387.000000	0.122879
386.000000	0.121991
385.000000	0.119887
384.000000	0.117846
383.000000	0.116204
382.000000	0.114548
381.000000	0.110996
380.000000	0.107248
379.000000	0.105727
378.000000	0.100648
377.000000	0.094712
376.000000	0.089354
375.000000	0.087195
374.000000	0.082368
373.000000	0.081484
372.000000	0.079297
371.000000	0.076961
370.000000	0.073897
369.000000	0.071927
368.000000	0.068157
367.000000	0.065295
366.000000	0.062442
365.000000	0.060215
364.000000	0.059259
363.000000	0.058961
362.000000	0.059522
361.000000	0.056015
360.000000	0.053687
359.000000	0.050680
358.000000	0.050722
357.000000	0.050090
356.000000	0.050036
355.000000	0.049891
354.000000	0.049820
353.000000	0.047793
352.000000	0.050033
351.000000	0.049586
350.000000	0.049297
349.000000	0.047714
348.000000	0.047031
347.000000	0.046127
346.000000	0.046841
345.000000	0.049021
344.000000	0.047745
343.000000	0.045674
342.000000	0.047666
341.000000	0.048252
340.000000	0.046736
339.000000	0.045554
338.000000	0.045982
337.000000	0.046586
336.000000	0.042389
335.000000	0.044053
334.000000	0.043642
333.000000	0.043910
332.000000	0.042184
331.000000	0.040694
330.000000	0.039759
329.000000	0.041804
328.000000	0.041369
327.000000	0.041947
326.000000	0.041684
325.000000	0.040621
324.000000	0.045670
323.000000	0.044922
322.000000	0.041745
321.000000	0.044661
320.000000	0.047067
319.000000	0.046221
318.000000	0.043363
317.000000	0.044526
316.000000	0.045048
315.000000	0.044741
314.000000	0.045582
313.000000	0.049612
312.000000	0.048849
311.000000	0.049807
310.000000	0.054421
309.000000	0.054949
308.000000	0.057434
307.000000	0.056425
306.000000	0.061794
305.000000	0.064220
304.000000	0.068174
303.000000	0.073359
302.000000	0.076366
301.000000	0.081018
300.000000	0.083913
