PE UV       SUBTECH     SPECTRUM    ASCII       PEDS        4.00        
   -1
PETIT_95.Sample.Raw.asc
20/12/16
12:27:48.00
20/12/16
12:27:48.00
CNRS
zeroair2
300.000000
1
Lambda 850
850L1011221
PerkinElmer UV WinLab 6.0.3.0730 / 1.61.00 Lambda 800

0
0
2
0
0
UV/VIS
1
1
1
RBeamAtt,SBeamAtt,150mm sphere / downward view
0
0
0
0
Fix
 
0
0.2
0
0
0
 
 
 
0
 
0
319.2
0
Front
50
 
S:100 R:100
 
0
0
0
 
0
 
 
 
0
 
 
0
0
0
0
0
 
 
 
 
0
0


#HDR
-1
-1
#GR
nm
A
1.0
0.0
800.000000
-1.000000
501
8
0.003649
-0.003993
#DATA
800.000000	0.000639
799.000000	-0.000506
798.000000	-0.000302
797.000000	0.000804
796.000000	0.001434
795.000000	0.001024
794.000000	-0.000243
793.000000	0.000228
792.000000	0.000648
791.000000	-0.000155
790.000000	0.000322
789.000000	0.000191
788.000000	0.000056
787.000000	0.001577
786.000000	0.000309
785.000000	0.000242
784.000000	0.000147
783.000000	0.000953
782.000000	-0.000494
781.000000	-0.000446
780.000000	0.000792
779.000000	0.000085
778.000000	0.000839
777.000000	0.001071
776.000000	0.001688
775.000000	0.000283
774.000000	0.000645
773.000000	0.000542
772.000000	-0.000502
771.000000	0.000258
770.000000	0.000202
769.000000	0.000056
768.000000	-0.000070
767.000000	0.000620
766.000000	-0.000041
765.000000	-0.001066
764.000000	0.000493
763.000000	0.000222
762.000000	0.000170
761.000000	0.000401
760.000000	-0.001244
759.000000	0.000137
758.000000	0.000478
757.000000	0.001945
756.000000	0.000156
755.000000	-0.000009
754.000000	0.000214
753.000000	-0.000136
752.000000	-0.000360
751.000000	0.000525
750.000000	-0.000099
749.000000	-0.000207
748.000000	-0.000452
747.000000	0.000559
746.000000	-0.000070
745.000000	-0.000645
744.000000	-0.000287
743.000000	-0.000003
742.000000	0.000668
741.000000	-0.000934
740.000000	-0.000519
739.000000	-0.000554
738.000000	0.000163
737.000000	-0.000121
736.000000	-0.000659
735.000000	0.000706
734.000000	-0.000703
733.000000	-0.000379
732.000000	0.000303
731.000000	0.000026
730.000000	-0.001269
729.000000	-0.001254
728.000000	-0.000379
727.000000	0.000197
726.000000	-0.000316
725.000000	0.000203
724.000000	0.000363
723.000000	0.000124
722.000000	0.000483
721.000000	-0.000266
720.000000	-0.000401
719.000000	0.000050
718.000000	-0.000171
717.000000	-0.000261
716.000000	-0.000134
715.000000	-0.000388
714.000000	0.000104
713.000000	-0.000274
712.000000	0.000184
711.000000	0.000236
710.000000	-0.000361
709.000000	0.000104
708.000000	-0.000729
707.000000	-0.000871
706.000000	0.000095
705.000000	0.000072
704.000000	-0.000063
703.000000	0.000381
702.000000	0.000385
701.000000	0.000108
700.000000	0.000160
699.000000	0.000034
698.000000	-0.000373
697.000000	-0.000742
696.000000	-0.000316
695.000000	-0.000051
694.000000	-0.000261
693.000000	-0.000433
692.000000	-0.000409
691.000000	-0.000335
690.000000	-0.000237
689.000000	-0.000514
688.000000	-0.000368
687.000000	0.000172
686.000000	-0.000130
685.000000	0.000318
684.000000	0.000425
683.000000	0.000158
682.000000	-0.000093
681.000000	-0.000299
680.000000	-0.000395
679.000000	-0.000388
678.000000	-0.000134
677.000000	-0.000010
676.000000	0.000277
675.000000	0.000578
674.000000	0.000594
673.000000	0.000500
672.000000	0.000090
671.000000	0.000041
670.000000	0.000044
669.000000	-0.000016
668.000000	-0.000208
667.000000	-0.000303
666.000000	-0.000035
665.000000	-0.000050
664.000000	0.000162
663.000000	0.000161
662.000000	-0.000068
661.000000	0.000283
660.000000	0.000353
659.000000	0.000145
658.000000	-0.000275
657.000000	-0.000562
656.000000	-0.000449
655.000000	-0.000145
654.000000	0.000004
653.000000	-0.000004
652.000000	-0.000215
651.000000	-0.000185
650.000000	-0.000121
649.000000	-0.000211
648.000000	-0.000202
647.000000	-0.000295
646.000000	-0.000313
645.000000	-0.000556
644.000000	-0.000477
643.000000	-0.000520
642.000000	-0.000560
641.000000	-0.000470
640.000000	-0.000269
639.000000	-0.000300
638.000000	-0.000226
637.000000	0.000032
636.000000	-0.000112
635.000000	-0.000250
634.000000	0.000152
633.000000	0.000505
632.000000	0.000095
631.000000	-0.000221
630.000000	-0.000183
629.000000	-0.000087
628.000000	0.000308
627.000000	0.000294
626.000000	-0.000313
625.000000	-0.000417
624.000000	-0.000195
623.000000	-0.000404
622.000000	-0.000409
621.000000	-0.000028
620.000000	-0.000174
619.000000	0.000260
618.000000	0.000083
617.000000	0.000192
616.000000	0.000008
615.000000	0.000278
614.000000	0.000177
613.000000	-0.000185
612.000000	-0.000336
611.000000	0.000042
610.000000	0.000404
609.000000	-0.000498
608.000000	-0.000509
607.000000	-0.000282
606.000000	-0.000136
605.000000	-0.000161
604.000000	-0.000125
603.000000	-0.000033
602.000000	-0.000178
601.000000	0.000537
600.000000	0.000064
599.000000	-0.000309
598.000000	-0.000386
597.000000	-0.000731
596.000000	-0.000545
595.000000	-0.000139
594.000000	0.000096
593.000000	0.000151
592.000000	-0.000449
591.000000	-0.000146
590.000000	-0.000250
589.000000	0.000191
588.000000	-0.000408
587.000000	-0.000338
586.000000	-0.000144
585.000000	-0.000312
584.000000	-0.000740
583.000000	-0.000216
582.000000	0.000089
581.000000	-0.000220
580.000000	-0.000451
579.000000	-0.000427
578.000000	-0.000183
577.000000	0.000576
576.000000	-0.000193
575.000000	-0.000274
574.000000	-0.000068
573.000000	-0.000391
572.000000	0.000064
571.000000	-0.000032
570.000000	-0.000252
569.000000	-0.000061
568.000000	-0.000242
567.000000	0.000372
566.000000	0.000343
565.000000	0.000026
564.000000	-0.000333
563.000000	-0.000199
562.000000	-0.000337
561.000000	-0.000048
560.000000	-0.000162
559.000000	-0.000334
558.000000	-0.000300
557.000000	0.000532
556.000000	-0.000166
555.000000	-0.000224
554.000000	-0.000078
553.000000	-0.000466
552.000000	-0.000273
551.000000	0.000056
550.000000	-0.000801
549.000000	-0.000236
548.000000	-0.000058
547.000000	-0.000164
546.000000	0.000158
545.000000	-0.000139
544.000000	0.000433
543.000000	-0.000006
542.000000	-0.000056
541.000000	-0.000152
540.000000	-0.000359
539.000000	-0.000236
538.000000	-0.000279
537.000000	-0.000219
536.000000	0.000119
535.000000	-0.000166
534.000000	-0.000249
533.000000	-0.000089
532.000000	0.000020
531.000000	-0.000113
530.000000	-0.000384
529.000000	-0.000340
528.000000	-0.000022
527.000000	0.000014
526.000000	-0.000161
525.000000	-0.000046
524.000000	-0.000298
523.000000	-0.000446
522.000000	-0.000937
521.000000	0.000212
520.000000	-0.000098
519.000000	-0.000415
518.000000	-0.000039
517.000000	0.000258
516.000000	0.000109
515.000000	0.000166
514.000000	0.000453
513.000000	0.000011
512.000000	-0.000237
511.000000	0.000166
510.000000	-0.000189
509.000000	-0.000032
508.000000	0.000214
507.000000	-0.000075
506.000000	-0.000200
505.000000	-0.000245
504.000000	-0.000166
503.000000	0.000403
502.000000	0.000120
501.000000	0.000016
500.000000	0.000204
499.000000	0.000074
498.000000	-0.000301
497.000000	-0.000176
496.000000	-0.000681
495.000000	-0.000239
494.000000	-0.000198
493.000000	-0.000608
492.000000	-0.000150
491.000000	0.000222
490.000000	-0.000302
489.000000	0.000011
488.000000	-0.000008
487.000000	0.000259
486.000000	-0.000160
485.000000	-0.000209
484.000000	-0.000042
483.000000	-0.000306
482.000000	-0.000006
481.000000	-0.000553
480.000000	-0.000273
479.000000	-0.000141
478.000000	-0.000274
477.000000	-0.000245
476.000000	-0.000208
475.000000	-0.000015
474.000000	0.000207
473.000000	-0.000136
472.000000	-0.000476
471.000000	-0.000339
470.000000	-0.000083
469.000000	-0.000259
468.000000	0.000072
467.000000	-0.000010
466.000000	-0.000524
465.000000	-0.000067
464.000000	0.000254
463.000000	-0.000221
462.000000	-0.000266
461.000000	-0.000273
460.000000	0.000140
459.000000	-0.000069
458.000000	-0.000227
457.000000	-0.000001
456.000000	0.000322
455.000000	-0.000089
454.000000	-0.000352
453.000000	-0.000426
452.000000	-0.000895
451.000000	-0.000566
450.000000	-0.000031
449.000000	0.000121
448.000000	0.000178
447.000000	-0.000124
446.000000	-0.000383
445.000000	-0.000327
444.000000	-0.000588
443.000000	-0.000288
442.000000	-0.000431
441.000000	-0.000290
440.000000	-0.000003
439.000000	0.000159
438.000000	0.000338
437.000000	-0.000182
436.000000	-0.000697
435.000000	-0.000640
434.000000	-0.000357
433.000000	0.000151
432.000000	0.000057
431.000000	-0.000185
430.000000	0.000018
429.000000	-0.000075
428.000000	-0.000326
427.000000	-0.000112
426.000000	0.000447
425.000000	0.000026
424.000000	-0.000536
423.000000	-0.000563
422.000000	-0.000394
421.000000	-0.000627
420.000000	-0.000168
419.000000	-0.000181
418.000000	-0.000803
417.000000	-0.000435
416.000000	-0.000207
415.000000	-0.000219
414.000000	-0.000220
413.000000	-0.000206
412.000000	-0.000210
411.000000	0.000071
410.000000	-0.000337
409.000000	-0.000258
408.000000	0.000110
407.000000	-0.000438
406.000000	-0.000649
405.000000	-0.000439
404.000000	-0.000195
403.000000	-0.000488
402.000000	-0.000266
401.000000	0.000448
400.000000	0.000716
399.000000	0.000555
398.000000	0.000119
397.000000	-0.000058
396.000000	0.000030
395.000000	0.000618
394.000000	0.000313
393.000000	0.000532
392.000000	0.001033
391.000000	0.000166
390.000000	-0.000617
389.000000	-0.000654
388.000000	-0.000699
387.000000	-0.000726
386.000000	0.000171
385.000000	0.000102
384.000000	-0.000224
383.000000	0.000457
382.000000	0.000978
381.000000	0.000379
380.000000	-0.000441
379.000000	0.000933
378.000000	0.001527
377.000000	0.000824
376.000000	0.000087
375.000000	0.000115
374.000000	-0.001540
373.000000	-0.000805
372.000000	-0.000051
371.000000	0.000024
370.000000	-0.000382
369.000000	0.000606
368.000000	0.000156
367.000000	-0.001009
366.000000	-0.001095
365.000000	-0.001888
364.000000	-0.000321
363.000000	0.000509
362.000000	0.003115
361.000000	0.001270
360.000000	-0.000189
359.000000	0.000465
358.000000	-0.000313
357.000000	-0.000339
356.000000	-0.000031
355.000000	0.000485
354.000000	0.000516
353.000000	-0.001134
352.000000	0.000622
351.000000	0.000075
350.000000	0.000365
349.000000	-0.002563
348.000000	-0.000012
347.000000	-0.000924
346.000000	-0.000413
345.000000	0.000728
344.000000	-0.000030
343.000000	-0.001300
342.000000	-0.001586
341.000000	0.000078
340.000000	-0.000007
339.000000	-0.000929
338.000000	0.002400
337.000000	-0.000308
336.000000	-0.000521
335.000000	0.000574
334.000000	-0.001475
333.000000	-0.000491
332.000000	-0.000175
331.000000	0.001901
330.000000	0.000207
329.000000	-0.000089
328.000000	0.000593
327.000000	0.003402
326.000000	-0.000900
325.000000	-0.001852
324.000000	0.003649
323.000000	0.000076
322.000000	-0.003993
321.000000	-0.000502
320.000000	0.000949
319.000000	-0.000343
318.000000	0.000757
317.000000	-0.000293
316.000000	0.000127
315.000000	-0.000335
314.000000	-0.001283
313.000000	0.000127
312.000000	-0.001516
311.000000	0.000398
310.000000	0.001164
309.000000	-0.000069
308.000000	0.001169
307.000000	0.000210
306.000000	0.000514
305.000000	0.000833
304.000000	0.000034
303.000000	0.000732
302.000000	0.001427
301.000000	0.001757
300.000000	-0.000599
