PE UV       SUBTECH     SPECTRUM    ASCII       PEDS        4.00        
   -1
PETIT_83.Sample.Raw.asc
20/12/16
11:21:00.00
20/12/16
11:21:00.00
CNRS
RCC1717_C_D2
300.000000
1
Lambda 850
850L1011221
PerkinElmer UV WinLab 6.0.3.0730 / 1.61.00 Lambda 800

0
0
2
0
0
UV/VIS
1
1
1
RBeamAtt,SBeamAtt,150mm sphere / downward view
0
0
0
0
Fix
 
0
0.2
0
0
0
 
 
 
0
 
0
319.2
0
Front
50
 
S:100 R:100
 
0
0
0
 
0
 
 
 
0
 
 
0
0
0
0
0
 
 
 
 
0
0


#HDR
-1
-1
#GR
nm
A
1.0
0.0
800.000000
-1.000000
501
8
0.233698
-0.013276
#DATA
800.000000	-0.011337
799.000000	-0.013276
798.000000	-0.011776
797.000000	-0.012262
796.000000	-0.010710
795.000000	-0.011628
794.000000	-0.011933
793.000000	-0.012576
792.000000	-0.012402
791.000000	-0.012338
790.000000	-0.012207
789.000000	-0.012668
788.000000	-0.011307
787.000000	-0.011255
786.000000	-0.011554
785.000000	-0.012135
784.000000	-0.011081
783.000000	-0.011687
782.000000	-0.012277
781.000000	-0.012756
780.000000	-0.010786
779.000000	-0.012075
778.000000	-0.012373
777.000000	-0.009974
776.000000	-0.010572
775.000000	-0.011185
774.000000	-0.011250
773.000000	-0.011211
772.000000	-0.011352
771.000000	-0.011518
770.000000	-0.011228
769.000000	-0.011648
768.000000	-0.011922
767.000000	-0.011327
766.000000	-0.011787
765.000000	-0.012080
764.000000	-0.011026
763.000000	-0.011997
762.000000	-0.009448
761.000000	-0.011410
760.000000	-0.012091
759.000000	-0.010544
758.000000	-0.010837
757.000000	-0.011225
756.000000	-0.011028
755.000000	-0.011087
754.000000	-0.010764
753.000000	-0.011495
752.000000	-0.011732
751.000000	-0.011454
750.000000	-0.011321
749.000000	-0.011244
748.000000	-0.012238
747.000000	-0.011438
746.000000	-0.011199
745.000000	-0.011552
744.000000	-0.010904
743.000000	-0.011780
742.000000	-0.010251
741.000000	-0.010917
740.000000	-0.011598
739.000000	-0.011014
738.000000	-0.011532
737.000000	-0.011706
736.000000	-0.011818
735.000000	-0.011043
734.000000	-0.011837
733.000000	-0.011968
732.000000	-0.011057
731.000000	-0.010810
730.000000	-0.011735
729.000000	-0.011563
728.000000	-0.010755
727.000000	-0.010802
726.000000	-0.010699
725.000000	-0.010169
724.000000	-0.010371
723.000000	-0.010628
722.000000	-0.010639
721.000000	-0.010518
720.000000	-0.010092
719.000000	-0.009504
718.000000	-0.009525
717.000000	-0.008743
716.000000	-0.008564
715.000000	-0.007920
714.000000	-0.006707
713.000000	-0.005672
712.000000	-0.004916
711.000000	-0.004967
710.000000	-0.004710
709.000000	-0.003577
708.000000	-0.003681
707.000000	-0.002995
706.000000	-0.000830
705.000000	-0.000307
704.000000	0.000401
703.000000	0.001777
702.000000	0.002519
701.000000	0.003232
700.000000	0.004681
699.000000	0.005589
698.000000	0.006414
697.000000	0.008162
696.000000	0.009803
695.000000	0.011743
694.000000	0.013794
693.000000	0.015574
692.000000	0.018015
691.000000	0.020628
690.000000	0.023123
689.000000	0.025640
688.000000	0.027988
687.000000	0.030785
686.000000	0.033302
685.000000	0.036345
684.000000	0.038434
683.000000	0.040375
682.000000	0.042836
681.000000	0.044657
680.000000	0.045989
679.000000	0.047256
678.000000	0.048825
677.000000	0.050068
676.000000	0.050913
675.000000	0.051318
674.000000	0.051170
673.000000	0.051165
672.000000	0.050289
671.000000	0.048765
670.000000	0.047084
669.000000	0.045479
668.000000	0.043612
667.000000	0.041446
666.000000	0.038789
665.000000	0.036150
664.000000	0.033811
663.000000	0.031166
662.000000	0.028597
661.000000	0.026279
660.000000	0.024040
659.000000	0.021634
658.000000	0.019898
657.000000	0.018207
656.000000	0.016787
655.000000	0.015929
654.000000	0.014756
653.000000	0.014060
652.000000	0.013721
651.000000	0.012746
650.000000	0.012241
649.000000	0.012100
648.000000	0.012003
647.000000	0.011966
646.000000	0.012006
645.000000	0.011749
644.000000	0.012500
643.000000	0.012436
642.000000	0.012743
641.000000	0.013636
640.000000	0.013737
639.000000	0.013813
638.000000	0.014131
637.000000	0.014119
636.000000	0.013904
635.000000	0.013850
634.000000	0.014155
633.000000	0.014600
632.000000	0.013884
631.000000	0.013271
630.000000	0.013604
629.000000	0.013557
628.000000	0.012902
627.000000	0.012521
626.000000	0.012362
625.000000	0.012097
624.000000	0.012128
623.000000	0.011926
622.000000	0.011849
621.000000	0.012116
620.000000	0.011680
619.000000	0.011406
618.000000	0.010875
617.000000	0.010899
616.000000	0.010421
615.000000	0.009646
614.000000	0.009276
613.000000	0.008748
612.000000	0.008625
611.000000	0.008499
610.000000	0.008268
609.000000	0.007368
608.000000	0.007376
607.000000	0.007078
606.000000	0.007044
605.000000	0.006825
604.000000	0.006514
603.000000	0.006596
602.000000	0.006544
601.000000	0.006486
600.000000	0.006432
599.000000	0.006751
598.000000	0.006895
597.000000	0.006757
596.000000	0.007086
595.000000	0.007862
594.000000	0.007897
593.000000	0.008484
592.000000	0.008220
591.000000	0.008686
590.000000	0.009073
589.000000	0.009305
588.000000	0.009249
587.000000	0.009152
586.000000	0.009322
585.000000	0.009343
584.000000	0.009323
583.000000	0.009378
582.000000	0.009658
581.000000	0.009757
580.000000	0.009602
579.000000	0.009522
578.000000	0.009209
577.000000	0.009841
576.000000	0.009322
575.000000	0.009644
574.000000	0.009635
573.000000	0.010187
572.000000	0.010654
571.000000	0.010481
570.000000	0.010910
569.000000	0.011137
568.000000	0.011623
567.000000	0.012352
566.000000	0.012452
565.000000	0.012875
564.000000	0.013173
563.000000	0.013813
562.000000	0.014357
561.000000	0.015375
560.000000	0.016334
559.000000	0.016741
558.000000	0.017411
557.000000	0.018193
556.000000	0.018955
555.000000	0.019489
554.000000	0.020740
553.000000	0.021338
552.000000	0.022032
551.000000	0.023044
550.000000	0.022948
549.000000	0.024097
548.000000	0.024555
547.000000	0.024650
546.000000	0.025343
545.000000	0.025097
544.000000	0.026327
543.000000	0.026139
542.000000	0.026640
541.000000	0.027045
540.000000	0.027436
539.000000	0.027844
538.000000	0.028477
537.000000	0.029413
536.000000	0.030014
535.000000	0.030483
534.000000	0.030584
533.000000	0.031037
532.000000	0.032069
531.000000	0.032164
530.000000	0.032239
529.000000	0.032802
528.000000	0.033621
527.000000	0.033920
526.000000	0.034390
525.000000	0.034572
524.000000	0.035377
523.000000	0.035801
522.000000	0.035949
521.000000	0.036094
520.000000	0.036262
519.000000	0.036795
518.000000	0.037489
517.000000	0.037842
516.000000	0.038376
515.000000	0.039008
514.000000	0.039423
513.000000	0.039473
512.000000	0.039800
511.000000	0.040689
510.000000	0.041517
509.000000	0.041810
508.000000	0.041978
507.000000	0.042769
506.000000	0.043279
505.000000	0.043994
504.000000	0.044951
503.000000	0.045497
502.000000	0.046589
501.000000	0.047312
500.000000	0.048135
499.000000	0.048501
498.000000	0.048390
497.000000	0.049008
496.000000	0.049682
495.000000	0.050617
494.000000	0.051223
493.000000	0.051860
492.000000	0.052373
491.000000	0.053291
490.000000	0.053876
489.000000	0.054406
488.000000	0.055450
487.000000	0.056001
486.000000	0.056150
485.000000	0.057237
484.000000	0.058243
483.000000	0.058982
482.000000	0.059445
481.000000	0.059946
480.000000	0.061289
479.000000	0.062128
478.000000	0.062919
477.000000	0.064095
476.000000	0.065707
475.000000	0.066618
474.000000	0.067646
473.000000	0.069062
472.000000	0.070003
471.000000	0.071493
470.000000	0.073147
469.000000	0.074404
468.000000	0.075636
467.000000	0.076622
466.000000	0.076979
465.000000	0.077999
464.000000	0.078806
463.000000	0.079359
462.000000	0.079791
461.000000	0.079587
460.000000	0.079971
459.000000	0.080404
458.000000	0.080749
457.000000	0.081299
456.000000	0.082148
455.000000	0.082297
454.000000	0.082760
453.000000	0.083456
452.000000	0.084291
451.000000	0.085116
450.000000	0.085628
449.000000	0.086548
448.000000	0.087842
447.000000	0.088592
446.000000	0.090082
445.000000	0.091661
444.000000	0.093148
443.000000	0.093900
442.000000	0.095447
441.000000	0.096532
440.000000	0.097240
439.000000	0.098100
438.000000	0.098686
437.000000	0.099498
436.000000	0.099990
435.000000	0.100701
434.000000	0.101692
433.000000	0.102346
432.000000	0.103098
431.000000	0.104061
430.000000	0.105443
429.000000	0.106697
428.000000	0.107476
427.000000	0.108921
426.000000	0.110029
425.000000	0.110745
424.000000	0.112243
423.000000	0.114115
422.000000	0.115645
421.000000	0.116962
420.000000	0.118906
419.000000	0.120527
418.000000	0.121471
417.000000	0.122845
416.000000	0.124078
415.000000	0.124870
414.000000	0.125874
413.000000	0.125781
412.000000	0.124436
411.000000	0.123754
410.000000	0.122705
409.000000	0.121264
408.000000	0.120367
407.000000	0.119069
406.000000	0.117116
405.000000	0.115038
404.000000	0.113642
403.000000	0.112845
402.000000	0.111820
401.000000	0.110330
400.000000	0.109415
399.000000	0.108747
398.000000	0.108072
397.000000	0.106947
396.000000	0.106108
395.000000	0.106204
394.000000	0.105557
393.000000	0.105065
392.000000	0.104992
391.000000	0.104512
390.000000	0.104353
389.000000	0.103920
388.000000	0.102856
387.000000	0.102249
386.000000	0.102840
385.000000	0.102152
384.000000	0.101896
383.000000	0.102659
382.000000	0.102967
381.000000	0.101922
380.000000	0.100586
379.000000	0.102332
378.000000	0.100607
377.000000	0.097370
376.000000	0.094697
375.000000	0.095400
374.000000	0.095522
373.000000	0.095857
372.000000	0.095991
371.000000	0.096184
370.000000	0.096103
369.000000	0.096936
368.000000	0.097570
367.000000	0.097637
366.000000	0.098595
365.000000	0.097778
364.000000	0.099784
363.000000	0.102681
362.000000	0.102965
361.000000	0.102922
360.000000	0.101697
359.000000	0.103554
358.000000	0.104335
357.000000	0.105480
356.000000	0.106472
355.000000	0.109062
354.000000	0.109222
353.000000	0.108916
352.000000	0.112069
351.000000	0.111530
350.000000	0.112380
349.000000	0.112884
348.000000	0.113930
347.000000	0.115508
346.000000	0.118009
345.000000	0.118959
344.000000	0.120036
343.000000	0.121923
342.000000	0.122554
341.000000	0.126185
340.000000	0.125721
339.000000	0.126479
338.000000	0.127842
337.000000	0.128886
336.000000	0.129922
335.000000	0.132816
334.000000	0.133961
333.000000	0.135451
332.000000	0.135775
331.000000	0.136738
330.000000	0.135730
329.000000	0.138666
328.000000	0.138999
327.000000	0.143625
326.000000	0.142597
325.000000	0.141210
324.000000	0.148741
323.000000	0.146462
322.000000	0.148711
321.000000	0.149707
320.000000	0.151965
319.000000	0.155002
318.000000	0.147575
317.000000	0.148462
316.000000	0.149710
315.000000	0.151423
314.000000	0.153788
313.000000	0.157797
312.000000	0.159559
311.000000	0.164178
310.000000	0.167468
309.000000	0.168634
308.000000	0.173141
307.000000	0.177161
306.000000	0.185637
305.000000	0.189728
304.000000	0.199674
303.000000	0.206269
302.000000	0.214275
301.000000	0.226724
300.000000	0.233698
