PE UV       SUBTECH     SPECTRUM    ASCII       PEDS        4.00        
   -1
PETIT_91.Sample.Raw.asc
20/12/16
12:14:10.00
20/12/16
12:14:10.00
CNRS
RCC4213_C_D2
300.000000
1
Lambda 850
850L1011221
PerkinElmer UV WinLab 6.0.3.0730 / 1.61.00 Lambda 800

0
0
2
0
0
UV/VIS
1
1
1
RBeamAtt,SBeamAtt,150mm sphere / downward view
0
0
0
0
Fix
 
0
0.2
0
0
0
 
 
 
0
 
0
319.2
0
Front
50
 
S:100 R:100
 
0
0
0
 
0
 
 
 
0
 
 
0
0
0
0
0
 
 
 
 
0
0


#HDR
-1
-1
#GR
nm
A
1.0
0.0
800.000000
-1.000000
501
8
0.441618
-0.012539
#DATA
800.000000	-0.010719
799.000000	-0.010594
798.000000	-0.011123
797.000000	-0.011299
796.000000	-0.010100
795.000000	-0.011676
794.000000	-0.010880
793.000000	-0.012320
792.000000	-0.011311
791.000000	-0.011631
790.000000	-0.010705
789.000000	-0.011960
788.000000	-0.012190
787.000000	-0.010379
786.000000	-0.011079
785.000000	-0.011682
784.000000	-0.011212
783.000000	-0.011675
782.000000	-0.011698
781.000000	-0.012539
780.000000	-0.009736
779.000000	-0.011108
778.000000	-0.010798
777.000000	-0.010316
776.000000	-0.010209
775.000000	-0.011182
774.000000	-0.011246
773.000000	-0.010777
772.000000	-0.010630
771.000000	-0.011028
770.000000	-0.011093
769.000000	-0.011571
768.000000	-0.012479
767.000000	-0.010824
766.000000	-0.011356
765.000000	-0.010887
764.000000	-0.011251
763.000000	-0.012334
762.000000	-0.010702
761.000000	-0.010443
760.000000	-0.011929
759.000000	-0.009971
758.000000	-0.010731
757.000000	-0.009821
756.000000	-0.010976
755.000000	-0.011414
754.000000	-0.010680
753.000000	-0.011061
752.000000	-0.010907
751.000000	-0.010580
750.000000	-0.011239
749.000000	-0.011022
748.000000	-0.010484
747.000000	-0.010581
746.000000	-0.011191
745.000000	-0.011017
744.000000	-0.010517
743.000000	-0.011800
742.000000	-0.009638
741.000000	-0.010315
740.000000	-0.010172
739.000000	-0.010535
738.000000	-0.010339
737.000000	-0.011071
736.000000	-0.011840
735.000000	-0.010976
734.000000	-0.011674
733.000000	-0.012035
732.000000	-0.011981
731.000000	-0.010543
730.000000	-0.011039
729.000000	-0.011621
728.000000	-0.011445
727.000000	-0.011503
726.000000	-0.011654
725.000000	-0.011092
724.000000	-0.010907
723.000000	-0.011764
722.000000	-0.011154
721.000000	-0.011259
720.000000	-0.012105
719.000000	-0.011586
718.000000	-0.011192
717.000000	-0.011233
716.000000	-0.010866
715.000000	-0.010648
714.000000	-0.010482
713.000000	-0.010663
712.000000	-0.009815
711.000000	-0.010236
710.000000	-0.010544
709.000000	-0.009858
708.000000	-0.010362
707.000000	-0.010362
706.000000	-0.008745
705.000000	-0.008587
704.000000	-0.008313
703.000000	-0.007737
702.000000	-0.006469
701.000000	-0.005549
700.000000	-0.004500
699.000000	-0.003954
698.000000	-0.003022
697.000000	-0.001366
696.000000	0.000703
695.000000	0.003196
694.000000	0.005614
693.000000	0.007998
692.000000	0.010976
691.000000	0.014780
690.000000	0.018887
689.000000	0.023102
688.000000	0.027506
687.000000	0.031950
686.000000	0.036366
685.000000	0.041287
684.000000	0.045925
683.000000	0.050030
682.000000	0.053872
681.000000	0.057338
680.000000	0.060861
679.000000	0.063580
678.000000	0.065873
677.000000	0.068052
676.000000	0.069964
675.000000	0.071058
674.000000	0.070942
673.000000	0.070659
672.000000	0.069766
671.000000	0.067761
670.000000	0.065146
669.000000	0.061797
668.000000	0.058571
667.000000	0.055780
666.000000	0.052335
665.000000	0.048505
664.000000	0.044682
663.000000	0.040664
662.000000	0.036890
661.000000	0.033956
660.000000	0.030901
659.000000	0.027630
658.000000	0.024738
657.000000	0.021861
656.000000	0.019574
655.000000	0.018487
654.000000	0.016747
653.000000	0.015037
652.000000	0.014026
651.000000	0.013220
650.000000	0.012390
649.000000	0.012001
648.000000	0.011863
647.000000	0.011779
646.000000	0.011878
645.000000	0.011859
644.000000	0.012684
643.000000	0.013463
642.000000	0.013338
641.000000	0.014188
640.000000	0.015053
639.000000	0.015337
638.000000	0.015786
637.000000	0.016098
636.000000	0.015888
635.000000	0.016141
634.000000	0.016660
633.000000	0.017011
632.000000	0.016752
631.000000	0.016287
630.000000	0.016255
629.000000	0.016222
628.000000	0.015955
627.000000	0.016021
626.000000	0.016044
625.000000	0.015748
624.000000	0.015711
623.000000	0.015453
622.000000	0.015808
621.000000	0.016146
620.000000	0.015652
619.000000	0.015231
618.000000	0.014464
617.000000	0.014817
616.000000	0.014242
615.000000	0.013482
614.000000	0.013315
613.000000	0.013035
612.000000	0.012338
611.000000	0.011844
610.000000	0.011567
609.000000	0.010652
608.000000	0.010632
607.000000	0.010150
606.000000	0.009725
605.000000	0.009660
604.000000	0.009015
603.000000	0.009251
602.000000	0.009741
601.000000	0.009935
600.000000	0.009576
599.000000	0.010032
598.000000	0.010285
597.000000	0.010338
596.000000	0.010713
595.000000	0.011498
594.000000	0.011745
593.000000	0.012133
592.000000	0.012345
591.000000	0.012829
590.000000	0.013478
589.000000	0.013642
588.000000	0.013307
587.000000	0.014207
586.000000	0.014293
585.000000	0.014197
584.000000	0.014315
583.000000	0.014762
582.000000	0.015001
581.000000	0.015180
580.000000	0.015162
579.000000	0.015148
578.000000	0.015311
577.000000	0.016047
576.000000	0.016058
575.000000	0.016065
574.000000	0.016551
573.000000	0.017028
572.000000	0.017512
571.000000	0.017862
570.000000	0.018305
569.000000	0.018771
568.000000	0.019322
567.000000	0.020692
566.000000	0.021036
565.000000	0.021351
564.000000	0.022119
563.000000	0.022610
562.000000	0.023756
561.000000	0.025524
560.000000	0.026107
559.000000	0.026900
558.000000	0.028151
557.000000	0.029596
556.000000	0.030366
555.000000	0.031413
554.000000	0.032901
553.000000	0.033341
552.000000	0.034973
551.000000	0.036156
550.000000	0.036552
549.000000	0.038065
548.000000	0.039357
547.000000	0.040344
546.000000	0.041754
545.000000	0.042213
544.000000	0.043623
543.000000	0.044313
542.000000	0.045425
541.000000	0.045673
540.000000	0.046844
539.000000	0.048076
538.000000	0.048839
537.000000	0.050048
536.000000	0.050999
535.000000	0.051821
534.000000	0.052884
533.000000	0.053454
532.000000	0.054431
531.000000	0.055148
530.000000	0.055640
529.000000	0.056481
528.000000	0.057708
527.000000	0.058604
526.000000	0.059307
525.000000	0.060029
524.000000	0.060990
523.000000	0.061545
522.000000	0.061870
521.000000	0.063722
520.000000	0.064227
519.000000	0.065462
518.000000	0.066677
517.000000	0.067696
516.000000	0.068725
515.000000	0.069669
514.000000	0.071442
513.000000	0.072013
512.000000	0.073352
511.000000	0.074390
510.000000	0.076063
509.000000	0.077182
508.000000	0.078734
507.000000	0.080438
506.000000	0.081703
505.000000	0.083047
504.000000	0.085423
503.000000	0.086817
502.000000	0.088520
501.000000	0.090416
500.000000	0.092196
499.000000	0.093264
498.000000	0.094622
497.000000	0.096447
496.000000	0.097688
495.000000	0.099453
494.000000	0.100336
493.000000	0.101433
492.000000	0.102803
491.000000	0.104104
490.000000	0.104456
489.000000	0.104744
488.000000	0.105652
487.000000	0.106576
486.000000	0.107377
485.000000	0.107667
484.000000	0.108348
483.000000	0.109179
482.000000	0.110297
481.000000	0.110520
480.000000	0.111522
479.000000	0.112436
478.000000	0.113506
477.000000	0.115055
476.000000	0.116830
475.000000	0.118092
474.000000	0.119696
473.000000	0.121463
472.000000	0.123138
471.000000	0.125345
470.000000	0.126911
469.000000	0.128719
468.000000	0.130984
467.000000	0.131938
466.000000	0.133344
465.000000	0.135444
464.000000	0.136996
463.000000	0.138184
462.000000	0.139157
461.000000	0.139781
460.000000	0.140597
459.000000	0.141343
458.000000	0.142613
457.000000	0.143618
456.000000	0.144219
455.000000	0.144447
454.000000	0.145322
453.000000	0.146710
452.000000	0.147263
451.000000	0.148346
450.000000	0.149669
449.000000	0.150596
448.000000	0.152919
447.000000	0.154332
446.000000	0.155742
445.000000	0.157365
444.000000	0.159546
443.000000	0.161743
442.000000	0.163297
441.000000	0.164557
440.000000	0.165826
439.000000	0.166956
438.000000	0.168254
437.000000	0.169138
436.000000	0.169796
435.000000	0.169954
434.000000	0.170490
433.000000	0.171719
432.000000	0.172186
431.000000	0.172101
430.000000	0.172806
429.000000	0.173972
428.000000	0.174431
427.000000	0.175310
426.000000	0.176170
425.000000	0.176780
424.000000	0.177913
423.000000	0.178699
422.000000	0.180111
421.000000	0.181275
420.000000	0.182480
419.000000	0.184013
418.000000	0.185546
417.000000	0.186736
416.000000	0.187970
415.000000	0.189324
414.000000	0.190856
413.000000	0.191745
412.000000	0.191948
411.000000	0.192664
410.000000	0.193613
409.000000	0.194706
408.000000	0.195527
407.000000	0.196292
406.000000	0.196989
405.000000	0.197575
404.000000	0.198237
403.000000	0.199402
402.000000	0.200214
401.000000	0.201763
400.000000	0.203470
399.000000	0.204766
398.000000	0.205592
397.000000	0.206844
396.000000	0.209240
395.000000	0.210904
394.000000	0.211853
393.000000	0.213720
392.000000	0.216372
391.000000	0.218154
390.000000	0.219382
389.000000	0.221388
388.000000	0.223441
387.000000	0.225677
386.000000	0.228277
385.000000	0.230089
384.000000	0.231743
383.000000	0.234445
382.000000	0.237875
381.000000	0.239363
380.000000	0.241599
379.000000	0.245672
378.000000	0.245303
377.000000	0.242552
376.000000	0.244632
375.000000	0.246930
374.000000	0.250319
373.000000	0.254360
372.000000	0.254088
371.000000	0.256615
370.000000	0.258567
369.000000	0.261939
368.000000	0.264094
367.000000	0.267560
366.000000	0.270890
365.000000	0.271414
364.000000	0.276966
363.000000	0.282884
362.000000	0.286090
361.000000	0.285133
360.000000	0.287166
359.000000	0.290258
358.000000	0.294317
357.000000	0.295576
356.000000	0.299175
355.000000	0.304366
354.000000	0.307399
353.000000	0.308797
352.000000	0.311180
351.000000	0.311718
350.000000	0.315199
349.000000	0.315488
348.000000	0.318950
347.000000	0.321241
346.000000	0.325546
345.000000	0.326778
344.000000	0.330051
343.000000	0.331140
342.000000	0.334574
341.000000	0.338496
340.000000	0.339185
339.000000	0.340634
338.000000	0.345275
337.000000	0.346410
336.000000	0.350547
335.000000	0.351382
334.000000	0.354436
333.000000	0.358031
332.000000	0.359228
331.000000	0.359764
330.000000	0.360118
329.000000	0.365782
328.000000	0.362832
327.000000	0.369519
326.000000	0.369636
325.000000	0.371918
324.000000	0.376116
323.000000	0.376547
322.000000	0.378897
321.000000	0.381212
320.000000	0.381599
319.000000	0.385762
318.000000	0.393760
317.000000	0.395149
316.000000	0.397841
315.000000	0.401763
314.000000	0.403056
313.000000	0.408027
312.000000	0.407873
311.000000	0.411140
310.000000	0.415086
309.000000	0.416639
308.000000	0.418617
307.000000	0.420101
306.000000	0.423591
305.000000	0.427876
304.000000	0.429290
303.000000	0.434155
302.000000	0.437661
301.000000	0.439777
300.000000	0.441618
