PE UV       SUBTECH     SPECTRUM    ASCII       PEDS        4.00        
   -1
PETIT_66.Sample.Raw.asc
20/12/16
09:49:15.00
20/12/16
09:49:15.00
CNRS
RCC3006_B_D2
300.000000
1
Lambda 850
850L1011221
PerkinElmer UV WinLab 6.0.3.0730 / 1.61.00 Lambda 800

0
0
2
0
0
UV/VIS
1
1
1
RBeamAtt,SBeamAtt,150mm sphere / downward view
0
0
0
0
Fix
 
0
0.2
0
0
0
 
 
 
0
 
0
319.2
0
Front
50
 
S:100 R:100
 
0
0
0
 
0
 
 
 
0
 
 
0
0
0
0
0
 
 
 
 
0
0


#HDR
-1
-1
#GR
nm
A
1.0
0.0
800.000000
-1.000000
501
8
0.285919
-0.014153
#DATA
800.000000	-0.012203
799.000000	-0.012686
798.000000	-0.013540
797.000000	-0.012463
796.000000	-0.013088
795.000000	-0.013261
794.000000	-0.012490
793.000000	-0.012913
792.000000	-0.012794
791.000000	-0.012857
790.000000	-0.014153
789.000000	-0.012405
788.000000	-0.013481
787.000000	-0.012058
786.000000	-0.013089
785.000000	-0.013545
784.000000	-0.012356
783.000000	-0.012739
782.000000	-0.012470
781.000000	-0.012809
780.000000	-0.012446
779.000000	-0.012429
778.000000	-0.013383
777.000000	-0.012019
776.000000	-0.011301
775.000000	-0.011690
774.000000	-0.012611
773.000000	-0.012210
772.000000	-0.012387
771.000000	-0.012166
770.000000	-0.012338
769.000000	-0.012533
768.000000	-0.013067
767.000000	-0.011818
766.000000	-0.012762
765.000000	-0.012579
764.000000	-0.012167
763.000000	-0.011628
762.000000	-0.011258
761.000000	-0.011737
760.000000	-0.012607
759.000000	-0.012190
758.000000	-0.012127
757.000000	-0.011624
756.000000	-0.012113
755.000000	-0.013027
754.000000	-0.012399
753.000000	-0.011827
752.000000	-0.012686
751.000000	-0.012178
750.000000	-0.012489
749.000000	-0.011881
748.000000	-0.012985
747.000000	-0.012090
746.000000	-0.012276
745.000000	-0.012463
744.000000	-0.011803
743.000000	-0.011607
742.000000	-0.010612
741.000000	-0.011385
740.000000	-0.011782
739.000000	-0.012546
738.000000	-0.012516
737.000000	-0.012409
736.000000	-0.011685
735.000000	-0.011888
734.000000	-0.011945
733.000000	-0.012441
732.000000	-0.012270
731.000000	-0.011712
730.000000	-0.012077
729.000000	-0.012730
728.000000	-0.012304
727.000000	-0.012801
726.000000	-0.013165
725.000000	-0.011965
724.000000	-0.011212
723.000000	-0.011518
722.000000	-0.011760
721.000000	-0.011691
720.000000	-0.011941
719.000000	-0.011481
718.000000	-0.011439
717.000000	-0.011300
716.000000	-0.011228
715.000000	-0.011239
714.000000	-0.011023
713.000000	-0.010777
712.000000	-0.010138
711.000000	-0.009958
710.000000	-0.009988
709.000000	-0.008970
708.000000	-0.008924
707.000000	-0.008453
706.000000	-0.007447
705.000000	-0.007040
704.000000	-0.005907
703.000000	-0.004961
702.000000	-0.003361
701.000000	-0.002069
700.000000	-0.000485
699.000000	0.001663
698.000000	0.003855
697.000000	0.006826
696.000000	0.010348
695.000000	0.014439
694.000000	0.019579
693.000000	0.024933
692.000000	0.031296
691.000000	0.038390
690.000000	0.045944
689.000000	0.053823
688.000000	0.061587
687.000000	0.069647
686.000000	0.077338
685.000000	0.084709
684.000000	0.091121
683.000000	0.097004
682.000000	0.102781
681.000000	0.107706
680.000000	0.111152
679.000000	0.114390
678.000000	0.117447
677.000000	0.119391
676.000000	0.121324
675.000000	0.122859
674.000000	0.122821
673.000000	0.122346
672.000000	0.121433
671.000000	0.119723
670.000000	0.117143
669.000000	0.113821
668.000000	0.109691
667.000000	0.105642
666.000000	0.100874
665.000000	0.095655
664.000000	0.091031
663.000000	0.085444
662.000000	0.079514
661.000000	0.074705
660.000000	0.069902
659.000000	0.065455
658.000000	0.061210
657.000000	0.057138
656.000000	0.054393
655.000000	0.052588
654.000000	0.050277
653.000000	0.049006
652.000000	0.047969
651.000000	0.046746
650.000000	0.046071
649.000000	0.045662
648.000000	0.045318
647.000000	0.044883
646.000000	0.044836
645.000000	0.044473
644.000000	0.044440
643.000000	0.044375
642.000000	0.044164
641.000000	0.044346
640.000000	0.044407
639.000000	0.044257
638.000000	0.044624
637.000000	0.044825
636.000000	0.044558
635.000000	0.044508
634.000000	0.045193
633.000000	0.045579
632.000000	0.045427
631.000000	0.044524
630.000000	0.044224
629.000000	0.044100
628.000000	0.043652
627.000000	0.043472
626.000000	0.042906
625.000000	0.042680
624.000000	0.043001
623.000000	0.042539
622.000000	0.041667
621.000000	0.041689
620.000000	0.041337
619.000000	0.041008
618.000000	0.040171
617.000000	0.039359
616.000000	0.038524
615.000000	0.037656
614.000000	0.037018
613.000000	0.036085
612.000000	0.035433
611.000000	0.034396
610.000000	0.034116
609.000000	0.033018
608.000000	0.032610
607.000000	0.031830
606.000000	0.031485
605.000000	0.031425
604.000000	0.031326
603.000000	0.031565
602.000000	0.032065
601.000000	0.032581
600.000000	0.032572
599.000000	0.033183
598.000000	0.033701
597.000000	0.033902
596.000000	0.035042
595.000000	0.035913
594.000000	0.036433
593.000000	0.037109
592.000000	0.036830
591.000000	0.037448
590.000000	0.037923
589.000000	0.038062
588.000000	0.037370
587.000000	0.037882
586.000000	0.037530
585.000000	0.037396
584.000000	0.037075
583.000000	0.037214
582.000000	0.037416
581.000000	0.037190
580.000000	0.037090
579.000000	0.037208
578.000000	0.037152
577.000000	0.038219
576.000000	0.037960
575.000000	0.038263
574.000000	0.038699
573.000000	0.039266
572.000000	0.040011
571.000000	0.040560
570.000000	0.041099
569.000000	0.041976
568.000000	0.043430
567.000000	0.045058
566.000000	0.046644
565.000000	0.047314
564.000000	0.049166
563.000000	0.050749
562.000000	0.052087
561.000000	0.054854
560.000000	0.057307
559.000000	0.059535
558.000000	0.061394
557.000000	0.063645
556.000000	0.065540
555.000000	0.067740
554.000000	0.070215
553.000000	0.071988
552.000000	0.074172
551.000000	0.076084
550.000000	0.077703
549.000000	0.080371
548.000000	0.081712
547.000000	0.082776
546.000000	0.085544
545.000000	0.086476
544.000000	0.088568
543.000000	0.090209
542.000000	0.091495
541.000000	0.092961
540.000000	0.094461
539.000000	0.095785
538.000000	0.097842
537.000000	0.098954
536.000000	0.100305
535.000000	0.101454
534.000000	0.102395
533.000000	0.103240
532.000000	0.104771
531.000000	0.105849
530.000000	0.106305
529.000000	0.107185
528.000000	0.108625
527.000000	0.109317
526.000000	0.109726
525.000000	0.110443
524.000000	0.111578
523.000000	0.112550
522.000000	0.113078
521.000000	0.113849
520.000000	0.114173
519.000000	0.114870
518.000000	0.115694
517.000000	0.116745
516.000000	0.117096
515.000000	0.117708
514.000000	0.118401
513.000000	0.119602
512.000000	0.120214
511.000000	0.121333
510.000000	0.123051
509.000000	0.123714
508.000000	0.124819
507.000000	0.125860
506.000000	0.127523
505.000000	0.128717
504.000000	0.130220
503.000000	0.131955
502.000000	0.133532
501.000000	0.134834
500.000000	0.136080
499.000000	0.137635
498.000000	0.139322
497.000000	0.139962
496.000000	0.140796
495.000000	0.142876
494.000000	0.143519
493.000000	0.144498
492.000000	0.145985
491.000000	0.146537
490.000000	0.146694
489.000000	0.147600
488.000000	0.148864
487.000000	0.149785
486.000000	0.149920
485.000000	0.150698
484.000000	0.151906
483.000000	0.152410
482.000000	0.153190
481.000000	0.153829
480.000000	0.154599
479.000000	0.155824
478.000000	0.156550
477.000000	0.157864
476.000000	0.159499
475.000000	0.160501
474.000000	0.161327
473.000000	0.162567
472.000000	0.163691
471.000000	0.164831
470.000000	0.165921
469.000000	0.166398
468.000000	0.166918
467.000000	0.167723
466.000000	0.167836
465.000000	0.168677
464.000000	0.169552
463.000000	0.169835
462.000000	0.170152
461.000000	0.169881
460.000000	0.170161
459.000000	0.170125
458.000000	0.170447
457.000000	0.170122
456.000000	0.169789
455.000000	0.169911
454.000000	0.170056
453.000000	0.170222
452.000000	0.170740
451.000000	0.171244
450.000000	0.171442
449.000000	0.172609
448.000000	0.174001
447.000000	0.174702
446.000000	0.175520
445.000000	0.176156
444.000000	0.177706
443.000000	0.179038
442.000000	0.179995
441.000000	0.180641
440.000000	0.181137
439.000000	0.181699
438.000000	0.181916
437.000000	0.182303
436.000000	0.182461
435.000000	0.181965
434.000000	0.181846
433.000000	0.182407
432.000000	0.181843
431.000000	0.181455
430.000000	0.181886
429.000000	0.181438
428.000000	0.181171
427.000000	0.181428
426.000000	0.181473
425.000000	0.181604
424.000000	0.181392
423.000000	0.181823
422.000000	0.182573
421.000000	0.182804
420.000000	0.183184
419.000000	0.183650
418.000000	0.184330
417.000000	0.184753
416.000000	0.185155
415.000000	0.185362
414.000000	0.185348
413.000000	0.184522
412.000000	0.183684
411.000000	0.183885
410.000000	0.183565
409.000000	0.182293
408.000000	0.181209
407.000000	0.180305
406.000000	0.179309
405.000000	0.178265
404.000000	0.177960
403.000000	0.176889
402.000000	0.176180
401.000000	0.176359
400.000000	0.176014
399.000000	0.175703
398.000000	0.175392
397.000000	0.175147
396.000000	0.175008
395.000000	0.175709
394.000000	0.176533
393.000000	0.177524
392.000000	0.178358
391.000000	0.178185
390.000000	0.178455
389.000000	0.178503
388.000000	0.179479
387.000000	0.180760
386.000000	0.182445
385.000000	0.183144
384.000000	0.183154
383.000000	0.184778
382.000000	0.186326
381.000000	0.187080
380.000000	0.187205
379.000000	0.189774
378.000000	0.188073
377.000000	0.184640
376.000000	0.184293
375.000000	0.185358
374.000000	0.184331
373.000000	0.185520
372.000000	0.186579
371.000000	0.187465
370.000000	0.188909
369.000000	0.189287
368.000000	0.190659
367.000000	0.189830
366.000000	0.190864
365.000000	0.193022
364.000000	0.196343
363.000000	0.197258
362.000000	0.199106
361.000000	0.197896
360.000000	0.199148
359.000000	0.200542
358.000000	0.199912
357.000000	0.201818
356.000000	0.203632
355.000000	0.208335
354.000000	0.207777
353.000000	0.208370
352.000000	0.212198
351.000000	0.213338
350.000000	0.218131
349.000000	0.221187
348.000000	0.224655
347.000000	0.229962
346.000000	0.235470
345.000000	0.239141
344.000000	0.243164
343.000000	0.244420
342.000000	0.246968
341.000000	0.251761
340.000000	0.256620
339.000000	0.256454
338.000000	0.261790
337.000000	0.261243
336.000000	0.261687
335.000000	0.263318
334.000000	0.264103
333.000000	0.269007
332.000000	0.267604
331.000000	0.265618
330.000000	0.266805
329.000000	0.267941
328.000000	0.269076
327.000000	0.273867
326.000000	0.273479
325.000000	0.272953
324.000000	0.274576
323.000000	0.277953
322.000000	0.272553
321.000000	0.277090
320.000000	0.277559
319.000000	0.282912
318.000000	0.267341
317.000000	0.263948
316.000000	0.266204
315.000000	0.264462
314.000000	0.265229
313.000000	0.268169
312.000000	0.267532
311.000000	0.267797
310.000000	0.269773
309.000000	0.270218
308.000000	0.269799
307.000000	0.269938
306.000000	0.273715
305.000000	0.274068
304.000000	0.276979
303.000000	0.279672
302.000000	0.280588
301.000000	0.285919
300.000000	0.285762
