PE UV       SUBTECH     SPECTRUM    ASCII       PEDS        4.00        
   -1
PETIT_70.Sample.Raw.asc
20/12/16
10:05:08.00
20/12/16
10:05:08.00
CNRS
RCC0100_B_DM
300.000000
1
Lambda 850
850L1011221
PerkinElmer UV WinLab 6.0.3.0730 / 1.61.00 Lambda 800

0
0
2
0
0
UV/VIS
1
1
1
RBeamAtt,SBeamAtt,150mm sphere / downward view
0
0
0
0
Fix
 
0
0.2
0
0
0
 
 
 
0
 
0
319.2
0
Front
50
 
S:100 R:100
 
0
0
0
 
0
 
 
 
0
 
 
0
0
0
0
0
 
 
 
 
0
0


#HDR
-1
-1
#GR
nm
A
1.0
0.0
800.000000
-1.000000
501
8
0.124166
-0.016548
#DATA
800.000000	-0.014599
799.000000	-0.016548
798.000000	-0.015902
797.000000	-0.014455
796.000000	-0.014305
795.000000	-0.015193
794.000000	-0.015428
793.000000	-0.014966
792.000000	-0.014434
791.000000	-0.015383
790.000000	-0.014731
789.000000	-0.016113
788.000000	-0.015623
787.000000	-0.013976
786.000000	-0.015744
785.000000	-0.015534
784.000000	-0.015022
783.000000	-0.014904
782.000000	-0.015239
781.000000	-0.015486
780.000000	-0.014683
779.000000	-0.015715
778.000000	-0.014685
777.000000	-0.014970
776.000000	-0.014860
775.000000	-0.014161
774.000000	-0.015007
773.000000	-0.015528
772.000000	-0.015560
771.000000	-0.015312
770.000000	-0.014788
769.000000	-0.015724
768.000000	-0.015515
767.000000	-0.015447
766.000000	-0.015513
765.000000	-0.016548
764.000000	-0.015033
763.000000	-0.015387
762.000000	-0.014636
761.000000	-0.015177
760.000000	-0.015331
759.000000	-0.015201
758.000000	-0.015048
757.000000	-0.014066
756.000000	-0.014929
755.000000	-0.015188
754.000000	-0.015155
753.000000	-0.014938
752.000000	-0.014911
751.000000	-0.014620
750.000000	-0.015141
749.000000	-0.014342
748.000000	-0.015003
747.000000	-0.014654
746.000000	-0.014534
745.000000	-0.014641
744.000000	-0.014649
743.000000	-0.015590
742.000000	-0.014828
741.000000	-0.015105
740.000000	-0.014831
739.000000	-0.014798
738.000000	-0.014623
737.000000	-0.014721
736.000000	-0.015459
735.000000	-0.014527
734.000000	-0.015236
733.000000	-0.015851
732.000000	-0.015248
731.000000	-0.014452
730.000000	-0.015377
729.000000	-0.015760
728.000000	-0.015290
727.000000	-0.016017
726.000000	-0.016241
725.000000	-0.015727
724.000000	-0.015255
723.000000	-0.015518
722.000000	-0.015853
721.000000	-0.015840
720.000000	-0.015888
719.000000	-0.015133
718.000000	-0.015291
717.000000	-0.015779
716.000000	-0.016044
715.000000	-0.015989
714.000000	-0.015324
713.000000	-0.015790
712.000000	-0.015384
711.000000	-0.014727
710.000000	-0.015201
709.000000	-0.015296
708.000000	-0.015777
707.000000	-0.015217
706.000000	-0.013934
705.000000	-0.014441
704.000000	-0.014413
703.000000	-0.013518
702.000000	-0.013261
701.000000	-0.012816
700.000000	-0.012221
699.000000	-0.011775
698.000000	-0.011078
697.000000	-0.010146
696.000000	-0.008840
695.000000	-0.006888
694.000000	-0.005736
693.000000	-0.003884
692.000000	-0.001223
691.000000	0.001375
690.000000	0.004931
689.000000	0.008373
688.000000	0.011745
687.000000	0.016574
686.000000	0.021425
685.000000	0.026130
684.000000	0.030259
683.000000	0.034355
682.000000	0.038533
681.000000	0.042472
680.000000	0.045709
679.000000	0.048706
678.000000	0.051274
677.000000	0.053170
676.000000	0.054882
675.000000	0.055639
674.000000	0.055113
673.000000	0.054213
672.000000	0.052567
671.000000	0.050262
670.000000	0.047653
669.000000	0.044742
668.000000	0.041073
667.000000	0.037282
666.000000	0.033778
665.000000	0.030207
664.000000	0.026124
663.000000	0.022677
662.000000	0.019858
661.000000	0.017139
660.000000	0.014824
659.000000	0.012635
658.000000	0.010557
657.000000	0.008563
656.000000	0.007065
655.000000	0.006616
654.000000	0.005624
653.000000	0.005080
652.000000	0.004934
651.000000	0.004216
650.000000	0.003706
649.000000	0.003911
648.000000	0.004547
647.000000	0.004715
646.000000	0.005043
645.000000	0.005601
644.000000	0.006659
643.000000	0.007105
642.000000	0.007289
641.000000	0.007703
640.000000	0.008021
639.000000	0.008305
638.000000	0.008101
637.000000	0.008097
636.000000	0.007813
635.000000	0.007628
634.000000	0.007966
633.000000	0.007778
632.000000	0.007158
631.000000	0.006546
630.000000	0.006403
629.000000	0.006226
628.000000	0.005627
627.000000	0.005339
626.000000	0.004993
625.000000	0.004366
624.000000	0.004255
623.000000	0.003837
622.000000	0.003785
621.000000	0.004168
620.000000	0.003968
619.000000	0.003954
618.000000	0.003929
617.000000	0.003544
616.000000	0.003470
615.000000	0.003364
614.000000	0.003035
613.000000	0.003036
612.000000	0.002951
611.000000	0.002876
610.000000	0.003211
609.000000	0.002859
608.000000	0.003194
607.000000	0.002817
606.000000	0.003220
605.000000	0.003208
604.000000	0.003427
603.000000	0.004108
602.000000	0.004558
601.000000	0.004988
600.000000	0.005087
599.000000	0.005748
598.000000	0.005282
597.000000	0.005418
596.000000	0.005980
595.000000	0.006019
594.000000	0.006729
593.000000	0.006584
592.000000	0.006393
591.000000	0.006362
590.000000	0.006029
589.000000	0.006125
588.000000	0.005327
587.000000	0.004919
586.000000	0.004610
585.000000	0.004064
584.000000	0.003365
583.000000	0.003386
582.000000	0.002857
581.000000	0.002191
580.000000	0.001347
579.000000	0.000851
578.000000	0.000352
577.000000	0.000681
576.000000	0.000059
575.000000	-0.000415
574.000000	-0.000575
573.000000	-0.001057
572.000000	-0.000732
571.000000	-0.001276
570.000000	-0.001202
569.000000	-0.001809
568.000000	-0.001147
567.000000	-0.000667
566.000000	-0.000795
565.000000	-0.000790
564.000000	-0.000398
563.000000	-0.000511
562.000000	-0.000380
561.000000	0.000334
560.000000	0.000974
559.000000	0.001555
558.000000	0.002092
557.000000	0.002727
556.000000	0.003282
555.000000	0.003797
554.000000	0.004351
553.000000	0.005305
552.000000	0.006414
551.000000	0.006488
550.000000	0.006844
549.000000	0.008365
548.000000	0.009500
547.000000	0.010015
546.000000	0.012104
545.000000	0.011700
544.000000	0.013210
543.000000	0.013153
542.000000	0.014912
541.000000	0.014830
540.000000	0.016880
539.000000	0.017378
538.000000	0.018334
537.000000	0.020044
536.000000	0.020416
535.000000	0.021453
534.000000	0.022296
533.000000	0.023418
532.000000	0.024829
531.000000	0.025797
530.000000	0.026493
529.000000	0.027479
528.000000	0.028984
527.000000	0.029628
526.000000	0.031105
525.000000	0.031686
524.000000	0.032407
523.000000	0.033518
522.000000	0.034228
521.000000	0.035372
520.000000	0.036792
519.000000	0.037584
518.000000	0.038683
517.000000	0.040498
516.000000	0.040882
515.000000	0.042158
514.000000	0.043433
513.000000	0.044481
512.000000	0.045430
511.000000	0.047032
510.000000	0.048134
509.000000	0.049084
508.000000	0.050580
507.000000	0.052223
506.000000	0.053270
505.000000	0.054854
504.000000	0.057036
503.000000	0.058691
502.000000	0.060418
501.000000	0.062467
500.000000	0.064745
499.000000	0.066982
498.000000	0.069029
497.000000	0.070799
496.000000	0.072753
495.000000	0.075993
494.000000	0.078331
493.000000	0.080362
492.000000	0.083266
491.000000	0.085552
490.000000	0.087487
489.000000	0.090061
488.000000	0.092101
487.000000	0.094321
486.000000	0.095812
485.000000	0.097789
484.000000	0.099680
483.000000	0.100247
482.000000	0.101466
481.000000	0.101986
480.000000	0.102596
479.000000	0.103613
478.000000	0.103881
477.000000	0.104685
476.000000	0.105881
475.000000	0.106260
474.000000	0.106963
473.000000	0.107486
472.000000	0.107644
471.000000	0.108686
470.000000	0.109183
469.000000	0.109751
468.000000	0.110470
467.000000	0.110744
466.000000	0.111282
465.000000	0.111815
464.000000	0.111992
463.000000	0.112170
462.000000	0.112223
461.000000	0.112272
460.000000	0.112514
459.000000	0.112463
458.000000	0.112993
457.000000	0.113110
456.000000	0.112799
455.000000	0.112842
454.000000	0.112941
453.000000	0.112965
452.000000	0.113222
451.000000	0.113765
450.000000	0.114194
449.000000	0.115185
448.000000	0.115933
447.000000	0.116357
446.000000	0.117139
445.000000	0.118437
444.000000	0.119925
443.000000	0.121232
442.000000	0.122424
441.000000	0.122862
440.000000	0.123221
439.000000	0.124162
438.000000	0.124166
437.000000	0.123603
436.000000	0.122956
435.000000	0.122029
434.000000	0.121029
433.000000	0.120031
432.000000	0.118533
431.000000	0.116770
430.000000	0.115103
429.000000	0.113281
428.000000	0.111310
427.000000	0.110139
426.000000	0.108833
425.000000	0.107727
424.000000	0.106594
423.000000	0.105247
422.000000	0.104703
421.000000	0.104124
420.000000	0.103002
419.000000	0.102522
418.000000	0.101976
417.000000	0.101150
416.000000	0.100269
415.000000	0.099395
414.000000	0.098947
413.000000	0.097692
412.000000	0.095843
411.000000	0.094569
410.000000	0.093121
409.000000	0.091225
408.000000	0.089250
407.000000	0.087213
406.000000	0.085391
405.000000	0.084038
404.000000	0.082495
403.000000	0.080238
402.000000	0.078610
401.000000	0.077935
400.000000	0.077191
399.000000	0.075596
398.000000	0.073991
397.000000	0.072556
396.000000	0.071759
395.000000	0.071603
394.000000	0.070050
393.000000	0.068410
392.000000	0.067841
391.000000	0.066642
390.000000	0.065991
389.000000	0.065246
388.000000	0.064440
387.000000	0.063649
386.000000	0.063549
385.000000	0.062598
384.000000	0.060617
383.000000	0.060223
382.000000	0.060342
381.000000	0.058611
380.000000	0.057247
379.000000	0.057438
378.000000	0.054888
377.000000	0.052057
376.000000	0.052763
375.000000	0.051868
374.000000	0.048001
373.000000	0.048172
372.000000	0.046399
371.000000	0.045054
370.000000	0.044627
369.000000	0.045841
368.000000	0.044123
367.000000	0.042385
366.000000	0.041302
365.000000	0.039773
364.000000	0.039312
363.000000	0.040777
362.000000	0.041712
361.000000	0.038875
360.000000	0.037942
359.000000	0.036049
358.000000	0.037646
357.000000	0.036007
356.000000	0.035903
355.000000	0.037333
354.000000	0.036363
353.000000	0.034764
352.000000	0.037831
351.000000	0.035176
350.000000	0.034784
349.000000	0.036622
348.000000	0.035335
347.000000	0.035357
346.000000	0.037766
345.000000	0.037148
344.000000	0.036683
343.000000	0.036134
342.000000	0.037494
341.000000	0.038844
340.000000	0.038517
339.000000	0.039216
338.000000	0.040357
337.000000	0.039386
336.000000	0.038346
335.000000	0.038832
334.000000	0.037467
333.000000	0.041875
332.000000	0.039765
331.000000	0.039706
330.000000	0.038715
329.000000	0.039460
328.000000	0.040515
327.000000	0.042795
326.000000	0.039943
325.000000	0.036285
324.000000	0.043611
323.000000	0.039337
322.000000	0.039360
321.000000	0.037421
320.000000	0.040422
319.000000	0.036907
318.000000	0.038292
317.000000	0.038188
316.000000	0.039409
315.000000	0.039047
314.000000	0.037987
313.000000	0.041957
312.000000	0.043572
311.000000	0.044364
310.000000	0.045352
309.000000	0.046125
308.000000	0.048816
307.000000	0.048982
306.000000	0.050436
305.000000	0.053787
304.000000	0.057572
303.000000	0.061559
302.000000	0.064088
301.000000	0.066137
300.000000	0.070095
