PE UV       SUBTECH     SPECTRUM    ASCII       PEDS        4.00        
   -1
PETIT_79.Sample.Raw.asc
20/12/16
11:07:13.00
20/12/16
11:07:13.00
CNRS
RCC9511_C_D2
300.000000
1
Lambda 850
850L1011221
PerkinElmer UV WinLab 6.0.3.0730 / 1.61.00 Lambda 800

0
0
2
0
0
UV/VIS
1
1
1
RBeamAtt,SBeamAtt,150mm sphere / downward view
0
0
0
0
Fix
 
0
0.2
0
0
0
 
 
 
0
 
0
319.2
0
Front
50
 
S:100 R:100
 
0
0
0
 
0
 
 
 
0
 
 
0
0
0
0
0
 
 
 
 
0
0


#HDR
-1
-1
#GR
nm
A
1.0
0.0
800.000000
-1.000000
501
8
0.251685
-0.014751
#DATA
800.000000	-0.011680
799.000000	-0.014210
798.000000	-0.013358
797.000000	-0.012259
796.000000	-0.011945
795.000000	-0.012919
794.000000	-0.013051
793.000000	-0.012278
792.000000	-0.012920
791.000000	-0.013829
790.000000	-0.013019
789.000000	-0.012968
788.000000	-0.013670
787.000000	-0.011535
786.000000	-0.012972
785.000000	-0.013976
784.000000	-0.012135
783.000000	-0.013619
782.000000	-0.013816
781.000000	-0.013603
780.000000	-0.014210
779.000000	-0.013518
778.000000	-0.014005
777.000000	-0.012570
776.000000	-0.013415
775.000000	-0.012193
774.000000	-0.013018
773.000000	-0.012598
772.000000	-0.012632
771.000000	-0.013241
770.000000	-0.012134
769.000000	-0.013638
768.000000	-0.013830
767.000000	-0.013226
766.000000	-0.014133
765.000000	-0.013178
764.000000	-0.013335
763.000000	-0.014020
762.000000	-0.012742
761.000000	-0.012800
760.000000	-0.013008
759.000000	-0.013570
758.000000	-0.012664
757.000000	-0.012421
756.000000	-0.012672
755.000000	-0.013209
754.000000	-0.013002
753.000000	-0.013221
752.000000	-0.013526
751.000000	-0.013901
750.000000	-0.013770
749.000000	-0.012972
748.000000	-0.014187
747.000000	-0.013169
746.000000	-0.013701
745.000000	-0.013402
744.000000	-0.013311
743.000000	-0.013537
742.000000	-0.012587
741.000000	-0.012878
740.000000	-0.013201
739.000000	-0.012585
738.000000	-0.012819
737.000000	-0.013146
736.000000	-0.013543
735.000000	-0.013360
734.000000	-0.014174
733.000000	-0.014090
732.000000	-0.013810
731.000000	-0.013220
730.000000	-0.013767
729.000000	-0.014751
728.000000	-0.014054
727.000000	-0.013897
726.000000	-0.013924
725.000000	-0.013331
724.000000	-0.012972
723.000000	-0.013673
722.000000	-0.013825
721.000000	-0.014341
720.000000	-0.013666
719.000000	-0.013213
718.000000	-0.013501
717.000000	-0.013583
716.000000	-0.013982
715.000000	-0.013501
714.000000	-0.012576
713.000000	-0.012927
712.000000	-0.012139
711.000000	-0.011323
710.000000	-0.011736
709.000000	-0.011938
708.000000	-0.011657
707.000000	-0.010811
706.000000	-0.009824
705.000000	-0.009682
704.000000	-0.008926
703.000000	-0.007295
702.000000	-0.006317
701.000000	-0.005358
700.000000	-0.003488
699.000000	-0.001814
698.000000	-0.000545
697.000000	0.001892
696.000000	0.005116
695.000000	0.008337
694.000000	0.012365
693.000000	0.016831
692.000000	0.022015
691.000000	0.027398
690.000000	0.033208
689.000000	0.039538
688.000000	0.045761
687.000000	0.052417
686.000000	0.058811
685.000000	0.064872
684.000000	0.070709
683.000000	0.075975
682.000000	0.080971
681.000000	0.085165
680.000000	0.088360
679.000000	0.091044
678.000000	0.093413
677.000000	0.095487
676.000000	0.097467
675.000000	0.098883
674.000000	0.099737
673.000000	0.099772
672.000000	0.098659
671.000000	0.096668
670.000000	0.094149
669.000000	0.090950
668.000000	0.086711
667.000000	0.081735
666.000000	0.076586
665.000000	0.070812
664.000000	0.064863
663.000000	0.059340
662.000000	0.053852
661.000000	0.048857
660.000000	0.043902
659.000000	0.039666
658.000000	0.035398
657.000000	0.031245
656.000000	0.028217
655.000000	0.026025
654.000000	0.023901
653.000000	0.022067
652.000000	0.020655
651.000000	0.018963
650.000000	0.017798
649.000000	0.016903
648.000000	0.016252
647.000000	0.015694
646.000000	0.014992
645.000000	0.014320
644.000000	0.014368
643.000000	0.014280
642.000000	0.013922
641.000000	0.014223
640.000000	0.014443
639.000000	0.014712
638.000000	0.015203
637.000000	0.015543
636.000000	0.015325
635.000000	0.015467
634.000000	0.015862
633.000000	0.016768
632.000000	0.016902
631.000000	0.016379
630.000000	0.016779
629.000000	0.016995
628.000000	0.016577
627.000000	0.016190
626.000000	0.015485
625.000000	0.014930
624.000000	0.015118
623.000000	0.014600
622.000000	0.014324
621.000000	0.014744
620.000000	0.014308
619.000000	0.013728
618.000000	0.012956
617.000000	0.012754
616.000000	0.012109
615.000000	0.011557
614.000000	0.011008
613.000000	0.010503
612.000000	0.009453
611.000000	0.008892
610.000000	0.008701
609.000000	0.007565
608.000000	0.007236
607.000000	0.006820
606.000000	0.006304
605.000000	0.006085
604.000000	0.005325
603.000000	0.005731
602.000000	0.005477
601.000000	0.004857
600.000000	0.004911
599.000000	0.004690
598.000000	0.003885
597.000000	0.003727
596.000000	0.003517
595.000000	0.003733
594.000000	0.004347
593.000000	0.003980
592.000000	0.003365
591.000000	0.003167
590.000000	0.003121
589.000000	0.003175
588.000000	0.002598
587.000000	0.002304
586.000000	0.002756
585.000000	0.002183
584.000000	0.001846
583.000000	0.001660
582.000000	0.001731
581.000000	0.001478
580.000000	0.000723
579.000000	0.000511
578.000000	0.000395
577.000000	0.000542
576.000000	-0.000030
575.000000	-0.000712
574.000000	-0.000254
573.000000	-0.000467
572.000000	-0.000135
571.000000	-0.000775
570.000000	-0.001146
569.000000	-0.001384
568.000000	-0.000932
567.000000	-0.001031
566.000000	-0.000828
565.000000	-0.001660
564.000000	-0.001407
563.000000	-0.001804
562.000000	-0.001123
561.000000	-0.000836
560.000000	0.000004
559.000000	-0.000286
558.000000	-0.000296
557.000000	0.000222
556.000000	0.000551
555.000000	0.000476
554.000000	0.000859
553.000000	0.001140
552.000000	0.001394
551.000000	0.001998
550.000000	0.001518
549.000000	0.002545
548.000000	0.002916
547.000000	0.003669
546.000000	0.003720
545.000000	0.004085
544.000000	0.005053
543.000000	0.005229
542.000000	0.006018
541.000000	0.006379
540.000000	0.006468
539.000000	0.006750
538.000000	0.008146
537.000000	0.008715
536.000000	0.009692
535.000000	0.010448
534.000000	0.011207
533.000000	0.011898
532.000000	0.013447
531.000000	0.014286
530.000000	0.015380
529.000000	0.016630
528.000000	0.018456
527.000000	0.020217
526.000000	0.021658
525.000000	0.023935
524.000000	0.026014
523.000000	0.028618
522.000000	0.030933
521.000000	0.033865
520.000000	0.036807
519.000000	0.039928
518.000000	0.043920
517.000000	0.048110
516.000000	0.051673
515.000000	0.056028
514.000000	0.060427
513.000000	0.064798
512.000000	0.069230
511.000000	0.074153
510.000000	0.079340
509.000000	0.083986
508.000000	0.088774
507.000000	0.093832
506.000000	0.098670
505.000000	0.103283
504.000000	0.108403
503.000000	0.112939
502.000000	0.116991
501.000000	0.121551
500.000000	0.125392
499.000000	0.129323
498.000000	0.131752
497.000000	0.134661
496.000000	0.136658
495.000000	0.139150
494.000000	0.141587
493.000000	0.143364
492.000000	0.145104
491.000000	0.146698
490.000000	0.147523
489.000000	0.148976
488.000000	0.150257
487.000000	0.150942
486.000000	0.151350
485.000000	0.151620
484.000000	0.152698
483.000000	0.153466
482.000000	0.154006
481.000000	0.154298
480.000000	0.155405
479.000000	0.156635
478.000000	0.157946
477.000000	0.159260
476.000000	0.161292
475.000000	0.163301
474.000000	0.164916
473.000000	0.167303
472.000000	0.169748
471.000000	0.172165
470.000000	0.175165
469.000000	0.178663
468.000000	0.181807
467.000000	0.184610
466.000000	0.188256
465.000000	0.192154
464.000000	0.196180
463.000000	0.199971
462.000000	0.203604
461.000000	0.207279
460.000000	0.211698
459.000000	0.216110
458.000000	0.220252
457.000000	0.224187
456.000000	0.227327
455.000000	0.230801
454.000000	0.234550
453.000000	0.237519
452.000000	0.239960
451.000000	0.242783
450.000000	0.245607
449.000000	0.247884
448.000000	0.250447
447.000000	0.251149
446.000000	0.250899
445.000000	0.251431
444.000000	0.251580
443.000000	0.251685
442.000000	0.250611
441.000000	0.249328
440.000000	0.247953
439.000000	0.246363
438.000000	0.244331
437.000000	0.242264
436.000000	0.240648
435.000000	0.239374
434.000000	0.237958
433.000000	0.236055
432.000000	0.234356
431.000000	0.233240
430.000000	0.232391
429.000000	0.231605
428.000000	0.230132
427.000000	0.228599
426.000000	0.227605
425.000000	0.226349
424.000000	0.224629
423.000000	0.222534
422.000000	0.221083
421.000000	0.218994
420.000000	0.216746
419.000000	0.214906
418.000000	0.212002
417.000000	0.209414
416.000000	0.207854
415.000000	0.205795
414.000000	0.203641
413.000000	0.201621
412.000000	0.199165
411.000000	0.197248
410.000000	0.194958
409.000000	0.193231
408.000000	0.191851
407.000000	0.190439
406.000000	0.189176
405.000000	0.187662
404.000000	0.186656
403.000000	0.185733
402.000000	0.185107
401.000000	0.184969
400.000000	0.185071
399.000000	0.184638
398.000000	0.184186
397.000000	0.183595
396.000000	0.183712
395.000000	0.184180
394.000000	0.183925
393.000000	0.183050
392.000000	0.182908
391.000000	0.182459
390.000000	0.181645
389.000000	0.180363
388.000000	0.178761
387.000000	0.176409
386.000000	0.174599
385.000000	0.171681
384.000000	0.168588
383.000000	0.166020
382.000000	0.163356
381.000000	0.158282
380.000000	0.153512
379.000000	0.151754
378.000000	0.146730
377.000000	0.139508
376.000000	0.134686
375.000000	0.131689
374.000000	0.128177
373.000000	0.124806
372.000000	0.121492
371.000000	0.118669
370.000000	0.116496
369.000000	0.114939
368.000000	0.112260
367.000000	0.111260
366.000000	0.110532
365.000000	0.107649
364.000000	0.107280
363.000000	0.107582
362.000000	0.107165
361.000000	0.103342
360.000000	0.101683
359.000000	0.102339
358.000000	0.101785
357.000000	0.101485
356.000000	0.101216
355.000000	0.103007
354.000000	0.102324
353.000000	0.100278
352.000000	0.102718
351.000000	0.099619
350.000000	0.099655
349.000000	0.099252
348.000000	0.100467
347.000000	0.100913
346.000000	0.102064
345.000000	0.105249
344.000000	0.102414
343.000000	0.100767
342.000000	0.102158
341.000000	0.102982
340.000000	0.102008
339.000000	0.103468
338.000000	0.105564
337.000000	0.102992
336.000000	0.104262
335.000000	0.102107
334.000000	0.103046
333.000000	0.102941
332.000000	0.102364
331.000000	0.102518
330.000000	0.102816
329.000000	0.101804
328.000000	0.102205
327.000000	0.102706
326.000000	0.102422
325.000000	0.100597
324.000000	0.104584
323.000000	0.107840
322.000000	0.104115
321.000000	0.107270
320.000000	0.110560
319.000000	0.109407
318.000000	0.105525
317.000000	0.107790
316.000000	0.107897
315.000000	0.109325
314.000000	0.109040
313.000000	0.111777
312.000000	0.111713
311.000000	0.114183
310.000000	0.116384
309.000000	0.119245
308.000000	0.119558
307.000000	0.121556
306.000000	0.123734
305.000000	0.128606
304.000000	0.132402
303.000000	0.138726
302.000000	0.140070
301.000000	0.143109
300.000000	0.149328
