PE UV       SUBTECH     SPECTRUM    ASCII       PEDS        4.00        
   -1
PETIT_82.Sample.Raw.asc
20/12/16
11:17:39.00
20/12/16
11:17:39.00
CNRS
RCC0076_C_D0
300.000000
1
Lambda 850
850L1011221
PerkinElmer UV WinLab 6.0.3.0730 / 1.61.00 Lambda 800

0
0
2
0
0
UV/VIS
1
1
1
RBeamAtt,SBeamAtt,150mm sphere / downward view
0
0
0
0
Fix
 
0
0.2
0
0
0
 
 
 
0
 
0
319.2
0
Front
50
 
S:100 R:100
 
0
0
0
 
0
 
 
 
0
 
 
0
0
0
0
0
 
 
 
 
0
0


#HDR
-1
-1
#GR
nm
A
1.0
0.0
800.000000
-1.000000
501
8
0.276434
-0.014510
#DATA
800.000000	-0.012332
799.000000	-0.012876
798.000000	-0.014258
797.000000	-0.012768
796.000000	-0.012082
795.000000	-0.014510
794.000000	-0.013957
793.000000	-0.013415
792.000000	-0.013038
791.000000	-0.013703
790.000000	-0.012830
789.000000	-0.013400
788.000000	-0.012859
787.000000	-0.011812
786.000000	-0.013571
785.000000	-0.012648
784.000000	-0.012707
783.000000	-0.012936
782.000000	-0.013075
781.000000	-0.014195
780.000000	-0.012670
779.000000	-0.013627
778.000000	-0.013450
777.000000	-0.011939
776.000000	-0.012658
775.000000	-0.012742
774.000000	-0.013490
773.000000	-0.013023
772.000000	-0.013337
771.000000	-0.013194
770.000000	-0.013189
769.000000	-0.012317
768.000000	-0.014173
767.000000	-0.013743
766.000000	-0.014036
765.000000	-0.013651
764.000000	-0.013526
763.000000	-0.013163
762.000000	-0.012888
761.000000	-0.012571
760.000000	-0.013566
759.000000	-0.013224
758.000000	-0.012819
757.000000	-0.011987
756.000000	-0.012906
755.000000	-0.012627
754.000000	-0.012496
753.000000	-0.012901
752.000000	-0.013012
751.000000	-0.012393
750.000000	-0.012531
749.000000	-0.012174
748.000000	-0.012800
747.000000	-0.012702
746.000000	-0.012978
745.000000	-0.012071
744.000000	-0.013152
743.000000	-0.012931
742.000000	-0.011540
741.000000	-0.012406
740.000000	-0.012786
739.000000	-0.012246
738.000000	-0.013206
737.000000	-0.012502
736.000000	-0.012686
735.000000	-0.011644
734.000000	-0.012929
733.000000	-0.013007
732.000000	-0.012581
731.000000	-0.011683
730.000000	-0.012130
729.000000	-0.012403
728.000000	-0.011521
727.000000	-0.011918
726.000000	-0.011926
725.000000	-0.010937
724.000000	-0.010689
723.000000	-0.011023
722.000000	-0.010104
721.000000	-0.009917
720.000000	-0.010170
719.000000	-0.009083
718.000000	-0.008598
717.000000	-0.007979
716.000000	-0.007061
715.000000	-0.006053
714.000000	-0.004921
713.000000	-0.004286
712.000000	-0.002285
711.000000	-0.000532
710.000000	0.000903
709.000000	0.002967
708.000000	0.004714
707.000000	0.007421
706.000000	0.011489
705.000000	0.014331
704.000000	0.018035
703.000000	0.022936
702.000000	0.027793
701.000000	0.033391
700.000000	0.040310
699.000000	0.046846
698.000000	0.054299
697.000000	0.062942
696.000000	0.072849
695.000000	0.083552
694.000000	0.094058
693.000000	0.105522
692.000000	0.117485
691.000000	0.129390
690.000000	0.141026
689.000000	0.151925
688.000000	0.162169
687.000000	0.172000
686.000000	0.180722
685.000000	0.188662
684.000000	0.195147
683.000000	0.200264
682.000000	0.204636
681.000000	0.208401
680.000000	0.212127
679.000000	0.215067
678.000000	0.217699
677.000000	0.220296
676.000000	0.222528
675.000000	0.223825
674.000000	0.224272
673.000000	0.223841
672.000000	0.221922
671.000000	0.219575
670.000000	0.216222
669.000000	0.211889
668.000000	0.206873
667.000000	0.201167
666.000000	0.195126
665.000000	0.188723
664.000000	0.181476
663.000000	0.173429
662.000000	0.165329
661.000000	0.157614
660.000000	0.149401
659.000000	0.141265
658.000000	0.132819
657.000000	0.124674
656.000000	0.117808
655.000000	0.111982
654.000000	0.106476
653.000000	0.101669
652.000000	0.097774
651.000000	0.094003
650.000000	0.091257
649.000000	0.089237
648.000000	0.088204
647.000000	0.087586
646.000000	0.087368
645.000000	0.087547
644.000000	0.088354
643.000000	0.089517
642.000000	0.090404
641.000000	0.092201
640.000000	0.093598
639.000000	0.094674
638.000000	0.095868
637.000000	0.097085
636.000000	0.097790
635.000000	0.098323
634.000000	0.099258
633.000000	0.099877
632.000000	0.099881
631.000000	0.099614
630.000000	0.099425
629.000000	0.099150
628.000000	0.098226
627.000000	0.097782
626.000000	0.097633
625.000000	0.096730
624.000000	0.096474
623.000000	0.095992
622.000000	0.095595
621.000000	0.095678
620.000000	0.094495
619.000000	0.093566
618.000000	0.091953
617.000000	0.091132
616.000000	0.089276
615.000000	0.087546
614.000000	0.085766
613.000000	0.083497
612.000000	0.081236
611.000000	0.079478
610.000000	0.077851
609.000000	0.075145
608.000000	0.073186
607.000000	0.071580
606.000000	0.069937
605.000000	0.068460
604.000000	0.067008
603.000000	0.066477
602.000000	0.065565
601.000000	0.065161
600.000000	0.064665
599.000000	0.064901
598.000000	0.064686
597.000000	0.064714
596.000000	0.065592
595.000000	0.066263
594.000000	0.066881
593.000000	0.067729
592.000000	0.068482
591.000000	0.069407
590.000000	0.069752
589.000000	0.070399
588.000000	0.070653
587.000000	0.070637
586.000000	0.071320
585.000000	0.071256
584.000000	0.070856
583.000000	0.070887
582.000000	0.071219
581.000000	0.071019
580.000000	0.070492
579.000000	0.069932
578.000000	0.069590
577.000000	0.070101
576.000000	0.069279
575.000000	0.068991
574.000000	0.068906
573.000000	0.068952
572.000000	0.069114
571.000000	0.069492
570.000000	0.069800
569.000000	0.069598
568.000000	0.070733
567.000000	0.071870
566.000000	0.072406
565.000000	0.073166
564.000000	0.074949
563.000000	0.076358
562.000000	0.077454
561.000000	0.080613
560.000000	0.082125
559.000000	0.084203
558.000000	0.086042
557.000000	0.088751
556.000000	0.090867
555.000000	0.092963
554.000000	0.095675
553.000000	0.097292
552.000000	0.099380
551.000000	0.101981
550.000000	0.103716
549.000000	0.106413
548.000000	0.108184
547.000000	0.110104
546.000000	0.112158
545.000000	0.113751
544.000000	0.116319
543.000000	0.117709
542.000000	0.119254
541.000000	0.120745
540.000000	0.122470
539.000000	0.123476
538.000000	0.125614
537.000000	0.126751
536.000000	0.128135
535.000000	0.129873
534.000000	0.130931
533.000000	0.131801
532.000000	0.133257
531.000000	0.134654
530.000000	0.135197
529.000000	0.136695
528.000000	0.138059
527.000000	0.139086
526.000000	0.140050
525.000000	0.141179
524.000000	0.141922
523.000000	0.143465
522.000000	0.144299
521.000000	0.145907
520.000000	0.146799
519.000000	0.148319
518.000000	0.149757
517.000000	0.152429
516.000000	0.153416
515.000000	0.154845
514.000000	0.156966
513.000000	0.159075
512.000000	0.161156
511.000000	0.163166
510.000000	0.165933
509.000000	0.168009
508.000000	0.170029
507.000000	0.173269
506.000000	0.175403
505.000000	0.177966
504.000000	0.181168
503.000000	0.184004
502.000000	0.187243
501.000000	0.189073
500.000000	0.191379
499.000000	0.194218
498.000000	0.196593
497.000000	0.198222
496.000000	0.200314
495.000000	0.202778
494.000000	0.203644
493.000000	0.204216
492.000000	0.205464
491.000000	0.206609
490.000000	0.206569
489.000000	0.206817
488.000000	0.207029
487.000000	0.207180
486.000000	0.206635
485.000000	0.205784
484.000000	0.205798
483.000000	0.205215
482.000000	0.205081
481.000000	0.203822
480.000000	0.203395
479.000000	0.203130
478.000000	0.203569
477.000000	0.204158
476.000000	0.205908
475.000000	0.206843
474.000000	0.208401
473.000000	0.210171
472.000000	0.212120
471.000000	0.214503
470.000000	0.217082
469.000000	0.219400
468.000000	0.221596
467.000000	0.223633
466.000000	0.226053
465.000000	0.228346
464.000000	0.230513
463.000000	0.232376
462.000000	0.233606
461.000000	0.234956
460.000000	0.237444
459.000000	0.238512
458.000000	0.239938
457.000000	0.241184
456.000000	0.243065
455.000000	0.244191
454.000000	0.245903
453.000000	0.247777
452.000000	0.249500
451.000000	0.251595
450.000000	0.253582
449.000000	0.256349
448.000000	0.259721
447.000000	0.262191
446.000000	0.264672
445.000000	0.266909
444.000000	0.269371
443.000000	0.271691
442.000000	0.273524
441.000000	0.274538
440.000000	0.275063
439.000000	0.276013
438.000000	0.276434
437.000000	0.276387
436.000000	0.275630
435.000000	0.274727
434.000000	0.274217
433.000000	0.273561
432.000000	0.272232
431.000000	0.270753
430.000000	0.270100
429.000000	0.269567
428.000000	0.268132
427.000000	0.266688
426.000000	0.266365
425.000000	0.265991
424.000000	0.265187
423.000000	0.264371
422.000000	0.264045
421.000000	0.264171
420.000000	0.263826
419.000000	0.263183
418.000000	0.263172
417.000000	0.262704
416.000000	0.261833
415.000000	0.260359
414.000000	0.258751
413.000000	0.257383
412.000000	0.255222
411.000000	0.253202
410.000000	0.251067
409.000000	0.248787
408.000000	0.246187
407.000000	0.243619
406.000000	0.241259
405.000000	0.238499
404.000000	0.236127
403.000000	0.234106
402.000000	0.232172
401.000000	0.230365
400.000000	0.229248
399.000000	0.227476
398.000000	0.225570
397.000000	0.224172
396.000000	0.223145
395.000000	0.222527
394.000000	0.221974
393.000000	0.220441
392.000000	0.219151
391.000000	0.218096
390.000000	0.217139
389.000000	0.215970
388.000000	0.214704
387.000000	0.213627
386.000000	0.212926
385.000000	0.211375
384.000000	0.210492
383.000000	0.209762
382.000000	0.208898
381.000000	0.206996
380.000000	0.204426
379.000000	0.203606
378.000000	0.200874
377.000000	0.195118
376.000000	0.193764
375.000000	0.190647
374.000000	0.186586
373.000000	0.185014
372.000000	0.183496
371.000000	0.180334
370.000000	0.179441
369.000000	0.179410
368.000000	0.177463
367.000000	0.174197
366.000000	0.172591
365.000000	0.171455
364.000000	0.170768
363.000000	0.170289
362.000000	0.170090
361.000000	0.167661
360.000000	0.166676
359.000000	0.164951
358.000000	0.163316
357.000000	0.162965
356.000000	0.161949
355.000000	0.164501
354.000000	0.162727
353.000000	0.161497
352.000000	0.163144
351.000000	0.163302
350.000000	0.163280
349.000000	0.162346
348.000000	0.162883
347.000000	0.164320
346.000000	0.166066
345.000000	0.166194
344.000000	0.167456
343.000000	0.167322
342.000000	0.167249
341.000000	0.170756
340.000000	0.168105
339.000000	0.169292
338.000000	0.171676
337.000000	0.172903
336.000000	0.168150
335.000000	0.170953
334.000000	0.168515
333.000000	0.170634
332.000000	0.168028
331.000000	0.166258
330.000000	0.164307
329.000000	0.166881
328.000000	0.167480
327.000000	0.167548
326.000000	0.161682
325.000000	0.160615
324.000000	0.165571
323.000000	0.162798
322.000000	0.161575
321.000000	0.164090
320.000000	0.165005
319.000000	0.164848
318.000000	0.155278
317.000000	0.154657
316.000000	0.155659
315.000000	0.155199
314.000000	0.156405
313.000000	0.159244
312.000000	0.158653
311.000000	0.159980
310.000000	0.162965
309.000000	0.164391
308.000000	0.162721
307.000000	0.162961
306.000000	0.169720
305.000000	0.173355
304.000000	0.174777
303.000000	0.180510
302.000000	0.182929
301.000000	0.188338
300.000000	0.193028
