PE UV       SUBTECH     SPECTRUM    ASCII       PEDS        4.00        
   -1
PETIT_92.Sample.Raw.asc
20/12/16
12:17:39.00
20/12/16
12:17:39.00
CNRS
RCC3006_C_DM
300.000000
1
Lambda 850
850L1011221
PerkinElmer UV WinLab 6.0.3.0730 / 1.61.00 Lambda 800

0
0
2
0
0
UV/VIS
1
1
1
RBeamAtt,SBeamAtt,150mm sphere / downward view
0
0
0
0
Fix
 
0
0.2
0
0
0
 
 
 
0
 
0
319.2
0
Front
50
 
S:100 R:100
 
0
0
0
 
0
 
 
 
0
 
 
0
0
0
0
0
 
 
 
 
0
0


#HDR
-1
-1
#GR
nm
A
1.0
0.0
800.000000
-1.000000
501
8
0.121106
-0.014675
#DATA
800.000000	-0.011484
799.000000	-0.013250
798.000000	-0.013727
797.000000	-0.013127
796.000000	-0.011675
795.000000	-0.013642
794.000000	-0.013076
793.000000	-0.012782
792.000000	-0.013702
791.000000	-0.013043
790.000000	-0.012248
789.000000	-0.014271
788.000000	-0.012593
787.000000	-0.013127
786.000000	-0.013291
785.000000	-0.014515
784.000000	-0.013003
783.000000	-0.013342
782.000000	-0.013000
781.000000	-0.013930
780.000000	-0.012033
779.000000	-0.012548
778.000000	-0.012939
777.000000	-0.012058
776.000000	-0.012375
775.000000	-0.012635
774.000000	-0.012756
773.000000	-0.012662
772.000000	-0.012684
771.000000	-0.013395
770.000000	-0.012693
769.000000	-0.013635
768.000000	-0.013930
767.000000	-0.013111
766.000000	-0.013742
765.000000	-0.013299
764.000000	-0.012702
763.000000	-0.012990
762.000000	-0.012218
761.000000	-0.012866
760.000000	-0.013304
759.000000	-0.012306
758.000000	-0.012524
757.000000	-0.011921
756.000000	-0.013114
755.000000	-0.013320
754.000000	-0.012314
753.000000	-0.013093
752.000000	-0.013514
751.000000	-0.013043
750.000000	-0.012935
749.000000	-0.012522
748.000000	-0.012895
747.000000	-0.013035
746.000000	-0.013277
745.000000	-0.014147
744.000000	-0.013631
743.000000	-0.013758
742.000000	-0.012269
741.000000	-0.013433
740.000000	-0.013161
739.000000	-0.013130
738.000000	-0.013394
737.000000	-0.013113
736.000000	-0.013656
735.000000	-0.013062
734.000000	-0.014084
733.000000	-0.013517
732.000000	-0.012851
731.000000	-0.012711
730.000000	-0.014018
729.000000	-0.014675
728.000000	-0.013608
727.000000	-0.013451
726.000000	-0.013320
725.000000	-0.012818
724.000000	-0.012438
723.000000	-0.012761
722.000000	-0.013172
721.000000	-0.013552
720.000000	-0.014015
719.000000	-0.013313
718.000000	-0.013401
717.000000	-0.013685
716.000000	-0.013690
715.000000	-0.013326
714.000000	-0.012935
713.000000	-0.012890
712.000000	-0.012251
711.000000	-0.011723
710.000000	-0.012469
709.000000	-0.012344
708.000000	-0.012323
707.000000	-0.011551
706.000000	-0.010232
705.000000	-0.010561
704.000000	-0.010335
703.000000	-0.009466
702.000000	-0.008363
701.000000	-0.007388
700.000000	-0.005888
699.000000	-0.005097
698.000000	-0.004419
697.000000	-0.002419
696.000000	0.000414
695.000000	0.003392
694.000000	0.005968
693.000000	0.008844
692.000000	0.013473
691.000000	0.018300
690.000000	0.023182
689.000000	0.027869
688.000000	0.033206
687.000000	0.038609
686.000000	0.043339
685.000000	0.048319
684.000000	0.052698
683.000000	0.056669
682.000000	0.060324
681.000000	0.062986
680.000000	0.065294
679.000000	0.067685
678.000000	0.069311
677.000000	0.070819
676.000000	0.071983
675.000000	0.072778
674.000000	0.073279
673.000000	0.073351
672.000000	0.072663
671.000000	0.070994
670.000000	0.069128
669.000000	0.067372
668.000000	0.064790
667.000000	0.062064
666.000000	0.059399
665.000000	0.055894
664.000000	0.052285
663.000000	0.048676
662.000000	0.044928
661.000000	0.041691
660.000000	0.038409
659.000000	0.035598
658.000000	0.032832
657.000000	0.030021
656.000000	0.028035
655.000000	0.026902
654.000000	0.025292
653.000000	0.024287
652.000000	0.023768
651.000000	0.022713
650.000000	0.022262
649.000000	0.022075
648.000000	0.021862
647.000000	0.021782
646.000000	0.021685
645.000000	0.021297
644.000000	0.021607
643.000000	0.021520
642.000000	0.021046
641.000000	0.021293
640.000000	0.021440
639.000000	0.021048
638.000000	0.021417
637.000000	0.021440
636.000000	0.021585
635.000000	0.021890
634.000000	0.021998
633.000000	0.022236
632.000000	0.022277
631.000000	0.021376
630.000000	0.021034
629.000000	0.020905
628.000000	0.020671
627.000000	0.020454
626.000000	0.020431
625.000000	0.019925
624.000000	0.020054
623.000000	0.019727
622.000000	0.019369
621.000000	0.019545
620.000000	0.019235
619.000000	0.018865
618.000000	0.018329
617.000000	0.018084
616.000000	0.017352
615.000000	0.016756
614.000000	0.016150
613.000000	0.015709
612.000000	0.014922
611.000000	0.014665
610.000000	0.014601
609.000000	0.013500
608.000000	0.012911
607.000000	0.012776
606.000000	0.012439
605.000000	0.012152
604.000000	0.012069
603.000000	0.012555
602.000000	0.012706
601.000000	0.013191
600.000000	0.013088
599.000000	0.013787
598.000000	0.013574
597.000000	0.013578
596.000000	0.014415
595.000000	0.015271
594.000000	0.015476
593.000000	0.015686
592.000000	0.015665
591.000000	0.015843
590.000000	0.016459
589.000000	0.016299
588.000000	0.015833
587.000000	0.015936
586.000000	0.016047
585.000000	0.015985
584.000000	0.015695
583.000000	0.015367
582.000000	0.015469
581.000000	0.015317
580.000000	0.015440
579.000000	0.015074
578.000000	0.015150
577.000000	0.016142
576.000000	0.015714
575.000000	0.015683
574.000000	0.016159
573.000000	0.016601
572.000000	0.016730
571.000000	0.017220
570.000000	0.017542
569.000000	0.017833
568.000000	0.018418
567.000000	0.019877
566.000000	0.020439
565.000000	0.021367
564.000000	0.021515
563.000000	0.023264
562.000000	0.023936
561.000000	0.025898
560.000000	0.027085
559.000000	0.028521
558.000000	0.029519
557.000000	0.031194
556.000000	0.032457
555.000000	0.033625
554.000000	0.035279
553.000000	0.036228
552.000000	0.037595
551.000000	0.039118
550.000000	0.039339
549.000000	0.041133
548.000000	0.042430
547.000000	0.043611
546.000000	0.045202
545.000000	0.046294
544.000000	0.047364
543.000000	0.047978
542.000000	0.049476
541.000000	0.049739
540.000000	0.051099
539.000000	0.051596
538.000000	0.052866
537.000000	0.053751
536.000000	0.054458
535.000000	0.055339
534.000000	0.055811
533.000000	0.056443
532.000000	0.057350
531.000000	0.058186
530.000000	0.058335
529.000000	0.058988
528.000000	0.059665
527.000000	0.060374
526.000000	0.060944
525.000000	0.061288
524.000000	0.061392
523.000000	0.061960
522.000000	0.062231
521.000000	0.062792
520.000000	0.063038
519.000000	0.063419
518.000000	0.063805
517.000000	0.064544
516.000000	0.065266
515.000000	0.065511
514.000000	0.066137
513.000000	0.066393
512.000000	0.067109
511.000000	0.067656
510.000000	0.068353
509.000000	0.069549
508.000000	0.069733
507.000000	0.070615
506.000000	0.071633
505.000000	0.072391
504.000000	0.073418
503.000000	0.074528
502.000000	0.074862
501.000000	0.076340
500.000000	0.077331
499.000000	0.078007
498.000000	0.079280
497.000000	0.079358
496.000000	0.079432
495.000000	0.081038
494.000000	0.081921
493.000000	0.081942
492.000000	0.082451
491.000000	0.083036
490.000000	0.083216
489.000000	0.083884
488.000000	0.083917
487.000000	0.084557
486.000000	0.084873
485.000000	0.085316
484.000000	0.086187
483.000000	0.086055
482.000000	0.086352
481.000000	0.086494
480.000000	0.087711
479.000000	0.088372
478.000000	0.088379
477.000000	0.089480
476.000000	0.090711
475.000000	0.090912
474.000000	0.091406
473.000000	0.092387
472.000000	0.092449
471.000000	0.093334
470.000000	0.094076
469.000000	0.094652
468.000000	0.094854
467.000000	0.095167
466.000000	0.095246
465.000000	0.095586
464.000000	0.096032
463.000000	0.096250
462.000000	0.096224
461.000000	0.095470
460.000000	0.095344
459.000000	0.095558
458.000000	0.095607
457.000000	0.095838
456.000000	0.095750
455.000000	0.095103
454.000000	0.095207
453.000000	0.095794
452.000000	0.095820
451.000000	0.096257
450.000000	0.096411
449.000000	0.096517
448.000000	0.097331
447.000000	0.097767
446.000000	0.098012
445.000000	0.098593
444.000000	0.099644
443.000000	0.100154
442.000000	0.100147
441.000000	0.100436
440.000000	0.100842
439.000000	0.100952
438.000000	0.100983
437.000000	0.100640
436.000000	0.100175
435.000000	0.099847
434.000000	0.100014
433.000000	0.099833
432.000000	0.099172
431.000000	0.098087
430.000000	0.097691
429.000000	0.097387
428.000000	0.096624
427.000000	0.096184
426.000000	0.096243
425.000000	0.095343
424.000000	0.094391
423.000000	0.094059
422.000000	0.093871
421.000000	0.093285
420.000000	0.093677
419.000000	0.093746
418.000000	0.093171
417.000000	0.092910
416.000000	0.092946
415.000000	0.092701
414.000000	0.092402
413.000000	0.091588
412.000000	0.090393
411.000000	0.089726
410.000000	0.089019
409.000000	0.088488
408.000000	0.087737
407.000000	0.086363
406.000000	0.085445
405.000000	0.084713
404.000000	0.083378
403.000000	0.082235
402.000000	0.081894
401.000000	0.081634
400.000000	0.081139
399.000000	0.080019
398.000000	0.079198
397.000000	0.078828
396.000000	0.078674
395.000000	0.078433
394.000000	0.077759
393.000000	0.077480
392.000000	0.078312
391.000000	0.077554
390.000000	0.076423
389.000000	0.076786
388.000000	0.076692
387.000000	0.076389
386.000000	0.076458
385.000000	0.076452
384.000000	0.076306
383.000000	0.077041
382.000000	0.077299
381.000000	0.076814
380.000000	0.075282
379.000000	0.076533
378.000000	0.075344
377.000000	0.072037
376.000000	0.071478
375.000000	0.071569
374.000000	0.068910
373.000000	0.070130
372.000000	0.069623
371.000000	0.068730
370.000000	0.067735
369.000000	0.069327
368.000000	0.068405
367.000000	0.067031
366.000000	0.067013
365.000000	0.067008
364.000000	0.068357
363.000000	0.068847
362.000000	0.069482
361.000000	0.068874
360.000000	0.067275
359.000000	0.067658
358.000000	0.068192
357.000000	0.066846
356.000000	0.067873
355.000000	0.070053
354.000000	0.070427
353.000000	0.070572
352.000000	0.072647
351.000000	0.072374
350.000000	0.072464
349.000000	0.073833
348.000000	0.078984
347.000000	0.081790
346.000000	0.084646
345.000000	0.085985
344.000000	0.087881
343.000000	0.089277
342.000000	0.093415
341.000000	0.095927
340.000000	0.097269
339.000000	0.098484
338.000000	0.101431
337.000000	0.100971
336.000000	0.101278
335.000000	0.102564
334.000000	0.099851
333.000000	0.103155
332.000000	0.102951
331.000000	0.102021
330.000000	0.103638
329.000000	0.099149
328.000000	0.103293
327.000000	0.107334
326.000000	0.106501
325.000000	0.101997
324.000000	0.105499
323.000000	0.108235
322.000000	0.107117
321.000000	0.108872
320.000000	0.108835
319.000000	0.108671
318.000000	0.101452
317.000000	0.101954
316.000000	0.102176
315.000000	0.100774
314.000000	0.101110
313.000000	0.104222
312.000000	0.101532
311.000000	0.103540
310.000000	0.104233
309.000000	0.105527
308.000000	0.103895
307.000000	0.104618
306.000000	0.107044
305.000000	0.108216
304.000000	0.111225
303.000000	0.114266
302.000000	0.116595
301.000000	0.117378
300.000000	0.121106
