PE UV       SUBTECH     SPECTRUM    ASCII       PEDS        4.00        
   -1
PETIT_64.Sample.Raw.asc
20/12/16
09:41:57.00
20/12/16
09:41:57.00
CNRS
RCC1717_C_DM
300.000000
1
Lambda 850
850L1011221
PerkinElmer UV WinLab 6.0.3.0730 / 1.61.00 Lambda 800

0
0
2
0
0
UV/VIS
1
1
1
RBeamAtt,SBeamAtt,150mm sphere / downward view
0
0
0
0
Fix
 
0
0.2
0
0
0
 
 
 
0
 
0
319.2
0
Front
50
 
S:100 R:100
 
0
0
0
 
0
 
 
 
0
 
 
0
0
0
0
0
 
 
 
 
0
0


#HDR
-1
-1
#GR
nm
A
1.0
0.0
800.000000
-1.000000
501
8
0.146116
-0.014692
#DATA
800.000000	-0.012843
799.000000	-0.013150
798.000000	-0.012641
797.000000	-0.011676
796.000000	-0.013030
795.000000	-0.014492
794.000000	-0.013479
793.000000	-0.014132
792.000000	-0.013710
791.000000	-0.013918
790.000000	-0.012902
789.000000	-0.014187
788.000000	-0.013342
787.000000	-0.012484
786.000000	-0.013689
785.000000	-0.014692
784.000000	-0.013439
783.000000	-0.013265
782.000000	-0.013681
781.000000	-0.013922
780.000000	-0.012691
779.000000	-0.013874
778.000000	-0.013962
777.000000	-0.012192
776.000000	-0.012294
775.000000	-0.013082
774.000000	-0.013982
773.000000	-0.012582
772.000000	-0.012990
771.000000	-0.013295
770.000000	-0.013679
769.000000	-0.013582
768.000000	-0.014522
767.000000	-0.012570
766.000000	-0.012533
765.000000	-0.012967
764.000000	-0.013076
763.000000	-0.013390
762.000000	-0.012584
761.000000	-0.012850
760.000000	-0.013583
759.000000	-0.013109
758.000000	-0.013413
757.000000	-0.011590
756.000000	-0.012507
755.000000	-0.012929
754.000000	-0.013136
753.000000	-0.012672
752.000000	-0.013169
751.000000	-0.012878
750.000000	-0.012949
749.000000	-0.012975
748.000000	-0.013087
747.000000	-0.012575
746.000000	-0.012479
745.000000	-0.013428
744.000000	-0.012614
743.000000	-0.013379
742.000000	-0.011832
741.000000	-0.012732
740.000000	-0.013056
739.000000	-0.012445
738.000000	-0.012471
737.000000	-0.012972
736.000000	-0.013128
735.000000	-0.012341
734.000000	-0.013502
733.000000	-0.013652
732.000000	-0.013039
731.000000	-0.012644
730.000000	-0.013177
729.000000	-0.013118
728.000000	-0.012503
727.000000	-0.012615
726.000000	-0.012330
725.000000	-0.011605
724.000000	-0.011484
723.000000	-0.012045
722.000000	-0.011323
721.000000	-0.011304
720.000000	-0.011135
719.000000	-0.009810
718.000000	-0.008995
717.000000	-0.008685
716.000000	-0.007683
715.000000	-0.006958
714.000000	-0.005623
713.000000	-0.004636
712.000000	-0.003494
711.000000	-0.002480
710.000000	-0.001975
709.000000	-0.000824
708.000000	-0.000026
707.000000	0.001691
706.000000	0.003956
705.000000	0.004924
704.000000	0.005744
703.000000	0.007559
702.000000	0.009487
701.000000	0.011885
700.000000	0.014003
699.000000	0.015432
698.000000	0.017442
697.000000	0.020162
696.000000	0.023209
695.000000	0.026998
694.000000	0.030045
693.000000	0.033549
692.000000	0.037806
691.000000	0.041552
690.000000	0.045804
689.000000	0.050196
688.000000	0.054254
687.000000	0.059064
686.000000	0.063505
685.000000	0.067887
684.000000	0.072160
683.000000	0.076081
682.000000	0.079659
681.000000	0.083144
680.000000	0.086595
679.000000	0.089336
678.000000	0.091550
677.000000	0.093821
676.000000	0.095889
675.000000	0.096986
674.000000	0.097348
673.000000	0.097207
672.000000	0.095871
671.000000	0.093499
670.000000	0.090538
669.000000	0.087419
668.000000	0.083289
667.000000	0.079103
666.000000	0.074899
665.000000	0.070065
664.000000	0.065285
663.000000	0.060398
662.000000	0.055180
661.000000	0.051045
660.000000	0.047223
659.000000	0.043663
658.000000	0.040147
657.000000	0.036685
656.000000	0.034132
655.000000	0.032524
654.000000	0.030642
653.000000	0.029302
652.000000	0.028064
651.000000	0.026806
650.000000	0.026084
649.000000	0.025473
648.000000	0.025446
647.000000	0.025467
646.000000	0.025343
645.000000	0.025282
644.000000	0.026056
643.000000	0.026286
642.000000	0.026546
641.000000	0.027267
640.000000	0.027716
639.000000	0.028037
638.000000	0.028519
637.000000	0.028876
636.000000	0.028418
635.000000	0.028490
634.000000	0.028569
633.000000	0.028500
632.000000	0.028153
631.000000	0.027020
630.000000	0.026604
629.000000	0.026815
628.000000	0.026152
627.000000	0.025690
626.000000	0.025305
625.000000	0.024547
624.000000	0.024390
623.000000	0.024173
622.000000	0.024087
621.000000	0.024081
620.000000	0.023851
619.000000	0.023403
618.000000	0.022251
617.000000	0.021994
616.000000	0.020865
615.000000	0.020232
614.000000	0.019431
613.000000	0.018676
612.000000	0.018272
611.000000	0.017355
610.000000	0.017088
609.000000	0.015682
608.000000	0.014768
607.000000	0.014517
606.000000	0.014234
605.000000	0.013931
604.000000	0.013084
603.000000	0.013346
602.000000	0.013007
601.000000	0.013258
600.000000	0.013521
599.000000	0.013859
598.000000	0.013705
597.000000	0.013730
596.000000	0.014498
595.000000	0.015155
594.000000	0.015452
593.000000	0.015943
592.000000	0.015639
591.000000	0.016179
590.000000	0.016819
589.000000	0.017076
588.000000	0.016633
587.000000	0.016676
586.000000	0.017268
585.000000	0.016520
584.000000	0.016332
583.000000	0.016496
582.000000	0.016572
581.000000	0.016361
580.000000	0.016416
579.000000	0.016334
578.000000	0.015903
577.000000	0.016282
576.000000	0.016089
575.000000	0.016145
574.000000	0.016285
573.000000	0.016490
572.000000	0.016518
571.000000	0.016552
570.000000	0.016911
569.000000	0.016680
568.000000	0.017540
567.000000	0.018159
566.000000	0.018389
565.000000	0.018806
564.000000	0.019425
563.000000	0.019999
562.000000	0.020737
561.000000	0.021918
560.000000	0.022402
559.000000	0.023436
558.000000	0.024303
557.000000	0.025407
556.000000	0.026169
555.000000	0.026774
554.000000	0.028350
553.000000	0.029232
552.000000	0.029711
551.000000	0.031012
550.000000	0.030921
549.000000	0.032897
548.000000	0.033604
547.000000	0.034741
546.000000	0.035617
545.000000	0.036515
544.000000	0.037536
543.000000	0.037681
542.000000	0.039138
541.000000	0.038956
540.000000	0.039720
539.000000	0.040070
538.000000	0.041264
537.000000	0.042316
536.000000	0.042459
535.000000	0.043068
534.000000	0.043752
533.000000	0.043993
532.000000	0.045137
531.000000	0.046100
530.000000	0.046097
529.000000	0.046549
528.000000	0.047560
527.000000	0.048376
526.000000	0.049165
525.000000	0.049178
524.000000	0.049611
523.000000	0.050433
522.000000	0.050319
521.000000	0.051269
520.000000	0.052318
519.000000	0.052709
518.000000	0.053616
517.000000	0.054504
516.000000	0.055325
515.000000	0.056081
514.000000	0.057123
513.000000	0.057418
512.000000	0.057687
511.000000	0.058866
510.000000	0.060153
509.000000	0.061189
508.000000	0.062177
507.000000	0.063498
506.000000	0.064526
505.000000	0.065555
504.000000	0.066616
503.000000	0.067534
502.000000	0.069357
501.000000	0.070179
500.000000	0.071559
499.000000	0.071797
498.000000	0.072461
497.000000	0.073692
496.000000	0.074453
495.000000	0.075075
494.000000	0.076071
493.000000	0.076835
492.000000	0.078177
491.000000	0.079027
490.000000	0.079602
489.000000	0.080177
488.000000	0.081277
487.000000	0.082317
486.000000	0.083046
485.000000	0.084060
484.000000	0.085602
483.000000	0.086847
482.000000	0.088116
481.000000	0.088915
480.000000	0.090664
479.000000	0.092111
478.000000	0.093849
477.000000	0.095816
476.000000	0.098177
475.000000	0.100914
474.000000	0.103051
473.000000	0.105431
472.000000	0.107851
471.000000	0.110720
470.000000	0.113075
469.000000	0.115767
468.000000	0.117941
467.000000	0.119205
466.000000	0.120844
465.000000	0.122111
464.000000	0.123311
463.000000	0.124242
462.000000	0.124685
461.000000	0.124728
460.000000	0.124939
459.000000	0.124870
458.000000	0.124815
457.000000	0.124337
456.000000	0.124574
455.000000	0.124781
454.000000	0.124070
453.000000	0.124734
452.000000	0.125379
451.000000	0.125975
450.000000	0.127315
449.000000	0.129183
448.000000	0.131043
447.000000	0.132400
446.000000	0.134280
445.000000	0.135820
444.000000	0.138198
443.000000	0.140432
442.000000	0.141920
441.000000	0.143584
440.000000	0.144572
439.000000	0.145381
438.000000	0.145827
437.000000	0.146072
436.000000	0.146116
435.000000	0.145718
434.000000	0.145325
433.000000	0.145164
432.000000	0.144716
431.000000	0.143654
430.000000	0.142669
429.000000	0.141467
428.000000	0.140390
427.000000	0.139498
426.000000	0.138634
425.000000	0.138183
424.000000	0.137471
423.000000	0.136628
422.000000	0.136316
421.000000	0.136443
420.000000	0.137168
419.000000	0.137365
418.000000	0.137090
417.000000	0.137087
416.000000	0.137513
415.000000	0.137650
414.000000	0.137606
413.000000	0.137365
412.000000	0.136769
411.000000	0.136873
410.000000	0.136097
409.000000	0.135032
408.000000	0.134395
407.000000	0.132986
406.000000	0.132144
405.000000	0.131233
404.000000	0.129634
403.000000	0.127710
402.000000	0.126957
401.000000	0.126404
400.000000	0.125269
399.000000	0.124157
398.000000	0.122994
397.000000	0.121467
396.000000	0.121106
395.000000	0.121399
394.000000	0.120587
393.000000	0.119732
392.000000	0.119816
391.000000	0.118731
390.000000	0.118667
389.000000	0.118375
388.000000	0.117372
387.000000	0.117010
386.000000	0.116665
385.000000	0.115296
384.000000	0.114358
383.000000	0.114268
382.000000	0.113629
381.000000	0.111346
380.000000	0.109794
379.000000	0.110141
378.000000	0.109337
377.000000	0.106643
376.000000	0.104503
375.000000	0.103011
374.000000	0.101095
373.000000	0.099614
372.000000	0.098137
371.000000	0.096234
370.000000	0.095316
369.000000	0.095177
368.000000	0.094206
367.000000	0.091674
366.000000	0.089770
365.000000	0.087583
364.000000	0.088568
363.000000	0.089203
362.000000	0.088445
361.000000	0.085122
360.000000	0.083345
359.000000	0.081647
358.000000	0.082533
357.000000	0.081602
356.000000	0.080698
355.000000	0.081000
354.000000	0.080870
353.000000	0.078361
352.000000	0.079846
351.000000	0.078047
350.000000	0.078651
349.000000	0.077446
348.000000	0.078562
347.000000	0.078656
346.000000	0.078142
345.000000	0.079850
344.000000	0.079680
343.000000	0.078228
342.000000	0.077555
341.000000	0.080039
340.000000	0.080970
339.000000	0.081581
338.000000	0.084003
337.000000	0.084054
336.000000	0.082688
335.000000	0.081055
334.000000	0.080500
333.000000	0.084876
332.000000	0.084445
331.000000	0.083560
330.000000	0.082364
329.000000	0.081816
328.000000	0.082303
327.000000	0.087040
326.000000	0.084543
325.000000	0.083017
324.000000	0.087713
323.000000	0.086424
322.000000	0.084216
321.000000	0.087220
320.000000	0.085001
319.000000	0.085854
318.000000	0.082407
317.000000	0.079762
316.000000	0.079115
315.000000	0.081997
314.000000	0.082541
313.000000	0.083626
312.000000	0.083506
311.000000	0.083245
310.000000	0.084748
309.000000	0.086282
308.000000	0.084482
307.000000	0.085482
306.000000	0.088493
305.000000	0.090391
304.000000	0.093411
303.000000	0.099374
302.000000	0.101022
301.000000	0.102211
300.000000	0.105572
