PE UV       SUBTECH     SPECTRUM    ASCII       PEDS        4.00        
   -1
PETIT_80.Sample.Raw.asc
20/12/16
11:10:42.00
20/12/16
11:10:42.00
CNRS
RCC0076_C_DM
300.000000
1
Lambda 850
850L1011221
PerkinElmer UV WinLab 6.0.3.0730 / 1.61.00 Lambda 800

0
0
2
0
0
UV/VIS
1
1
1
RBeamAtt,SBeamAtt,150mm sphere / downward view
0
0
0
0
Fix
 
0
0.2
0
0
0
 
 
 
0
 
0
319.2
0
Front
50
 
S:100 R:100
 
0
0
0
 
0
 
 
 
0
 
 
0
0
0
0
0
 
 
 
 
0
0


#HDR
-1
-1
#GR
nm
A
1.0
0.0
800.000000
-1.000000
501
8
0.210928
-0.015339
#DATA
800.000000	-0.014103
799.000000	-0.013042
798.000000	-0.013745
797.000000	-0.013446
796.000000	-0.012558
795.000000	-0.012413
794.000000	-0.012003
793.000000	-0.014259
792.000000	-0.014411
791.000000	-0.013777
790.000000	-0.014136
789.000000	-0.015339
788.000000	-0.014522
787.000000	-0.011928
786.000000	-0.013647
785.000000	-0.014029
784.000000	-0.013849
783.000000	-0.013689
782.000000	-0.013795
781.000000	-0.014620
780.000000	-0.013512
779.000000	-0.014096
778.000000	-0.013744
777.000000	-0.012222
776.000000	-0.012600
775.000000	-0.013040
774.000000	-0.014180
773.000000	-0.014185
772.000000	-0.013434
771.000000	-0.012751
770.000000	-0.013874
769.000000	-0.014162
768.000000	-0.014120
767.000000	-0.012756
766.000000	-0.012928
765.000000	-0.013909
764.000000	-0.014182
763.000000	-0.013959
762.000000	-0.013750
761.000000	-0.013671
760.000000	-0.013830
759.000000	-0.013239
758.000000	-0.013027
757.000000	-0.012494
756.000000	-0.013186
755.000000	-0.014398
754.000000	-0.013996
753.000000	-0.013105
752.000000	-0.013524
751.000000	-0.013264
750.000000	-0.012574
749.000000	-0.013427
748.000000	-0.014100
747.000000	-0.013444
746.000000	-0.013918
745.000000	-0.013723
744.000000	-0.013622
743.000000	-0.013893
742.000000	-0.013143
741.000000	-0.013589
740.000000	-0.013645
739.000000	-0.013505
738.000000	-0.014053
737.000000	-0.013354
736.000000	-0.013558
735.000000	-0.012612
734.000000	-0.014323
733.000000	-0.014261
732.000000	-0.013643
731.000000	-0.012679
730.000000	-0.013743
729.000000	-0.014404
728.000000	-0.013404
727.000000	-0.013077
726.000000	-0.013192
725.000000	-0.012610
724.000000	-0.012126
723.000000	-0.012432
722.000000	-0.012220
721.000000	-0.012231
720.000000	-0.012640
719.000000	-0.011801
718.000000	-0.010960
717.000000	-0.010843
716.000000	-0.010580
715.000000	-0.010065
714.000000	-0.008842
713.000000	-0.008090
712.000000	-0.007124
711.000000	-0.006329
710.000000	-0.006047
709.000000	-0.003983
708.000000	-0.002589
707.000000	-0.001223
706.000000	0.000913
705.000000	0.002689
704.000000	0.005175
703.000000	0.008844
702.000000	0.012418
701.000000	0.016258
700.000000	0.020575
699.000000	0.025150
698.000000	0.030844
697.000000	0.037329
696.000000	0.044314
695.000000	0.052621
694.000000	0.060887
693.000000	0.069662
692.000000	0.079144
691.000000	0.088120
690.000000	0.097168
689.000000	0.105807
688.000000	0.113692
687.000000	0.121707
686.000000	0.128677
685.000000	0.135125
684.000000	0.140815
683.000000	0.145539
682.000000	0.149749
681.000000	0.152841
680.000000	0.155224
679.000000	0.157964
678.000000	0.160346
677.000000	0.161967
676.000000	0.164030
675.000000	0.165203
674.000000	0.164995
673.000000	0.164640
672.000000	0.163648
671.000000	0.161422
670.000000	0.158463
669.000000	0.155161
668.000000	0.151142
667.000000	0.146684
666.000000	0.141526
665.000000	0.135889
664.000000	0.129901
663.000000	0.123672
662.000000	0.116914
661.000000	0.110510
660.000000	0.104062
659.000000	0.097392
658.000000	0.091214
657.000000	0.084954
656.000000	0.079295
655.000000	0.074642
654.000000	0.070449
653.000000	0.066524
652.000000	0.063520
651.000000	0.060989
650.000000	0.058840
649.000000	0.057206
648.000000	0.056365
647.000000	0.055612
646.000000	0.055635
645.000000	0.055571
644.000000	0.056373
643.000000	0.057337
642.000000	0.057852
641.000000	0.059086
640.000000	0.060198
639.000000	0.060724
638.000000	0.061682
637.000000	0.062802
636.000000	0.063273
635.000000	0.063791
634.000000	0.064668
633.000000	0.064686
632.000000	0.064675
631.000000	0.064453
630.000000	0.064661
629.000000	0.064525
628.000000	0.063706
627.000000	0.063367
626.000000	0.063139
625.000000	0.062425
624.000000	0.062449
623.000000	0.062001
622.000000	0.061560
621.000000	0.061619
620.000000	0.061009
619.000000	0.060134
618.000000	0.058929
617.000000	0.057862
616.000000	0.056842
615.000000	0.055618
614.000000	0.054092
613.000000	0.052326
612.000000	0.050917
611.000000	0.049541
610.000000	0.048181
609.000000	0.046213
608.000000	0.044756
607.000000	0.043523
606.000000	0.042487
605.000000	0.041313
604.000000	0.039948
603.000000	0.039609
602.000000	0.039068
601.000000	0.038796
600.000000	0.038135
599.000000	0.038359
598.000000	0.038302
597.000000	0.037985
596.000000	0.038621
595.000000	0.039707
594.000000	0.040424
593.000000	0.040869
592.000000	0.040800
591.000000	0.041607
590.000000	0.042333
589.000000	0.042506
588.000000	0.041909
587.000000	0.042451
586.000000	0.043406
585.000000	0.043014
584.000000	0.042955
583.000000	0.042604
582.000000	0.042962
581.000000	0.042591
580.000000	0.042858
579.000000	0.042550
578.000000	0.041653
577.000000	0.042451
576.000000	0.041655
575.000000	0.041311
574.000000	0.041425
573.000000	0.041192
572.000000	0.041623
571.000000	0.041869
570.000000	0.041628
569.000000	0.042198
568.000000	0.042367
567.000000	0.043247
566.000000	0.043803
565.000000	0.044336
564.000000	0.045830
563.000000	0.046155
562.000000	0.047585
561.000000	0.049684
560.000000	0.051023
559.000000	0.052785
558.000000	0.054035
557.000000	0.056000
556.000000	0.057433
555.000000	0.058863
554.000000	0.061030
553.000000	0.062486
552.000000	0.064247
551.000000	0.065660
550.000000	0.066950
549.000000	0.069378
548.000000	0.070825
547.000000	0.072782
546.000000	0.073680
545.000000	0.075242
544.000000	0.077072
543.000000	0.078166
542.000000	0.079632
541.000000	0.080533
540.000000	0.081893
539.000000	0.083207
538.000000	0.084316
537.000000	0.086052
536.000000	0.086283
535.000000	0.088313
534.000000	0.088830
533.000000	0.089620
532.000000	0.090902
531.000000	0.092142
530.000000	0.092896
529.000000	0.093660
528.000000	0.094935
527.000000	0.095758
526.000000	0.097245
525.000000	0.097915
524.000000	0.098544
523.000000	0.099708
522.000000	0.100384
521.000000	0.102030
520.000000	0.103046
519.000000	0.104345
518.000000	0.105706
517.000000	0.107298
516.000000	0.108470
515.000000	0.109698
514.000000	0.112253
513.000000	0.112871
512.000000	0.114938
511.000000	0.116513
510.000000	0.118281
509.000000	0.120368
508.000000	0.122050
507.000000	0.124481
506.000000	0.126636
505.000000	0.128478
504.000000	0.130781
503.000000	0.133351
502.000000	0.135224
501.000000	0.137569
500.000000	0.139909
499.000000	0.141259
498.000000	0.142838
497.000000	0.144207
496.000000	0.145986
495.000000	0.147775
494.000000	0.148709
493.000000	0.149384
492.000000	0.150307
491.000000	0.150870
490.000000	0.150698
489.000000	0.151411
488.000000	0.151166
487.000000	0.150879
486.000000	0.150262
485.000000	0.150057
484.000000	0.149989
483.000000	0.149657
482.000000	0.149219
481.000000	0.148760
480.000000	0.148617
479.000000	0.148348
478.000000	0.149046
477.000000	0.149349
476.000000	0.150619
475.000000	0.151495
474.000000	0.152909
473.000000	0.154391
472.000000	0.156049
471.000000	0.158590
470.000000	0.160459
469.000000	0.162305
468.000000	0.164549
467.000000	0.166314
466.000000	0.168101
465.000000	0.170267
464.000000	0.172008
463.000000	0.173719
462.000000	0.174730
461.000000	0.175411
460.000000	0.176901
459.000000	0.178147
458.000000	0.179285
457.000000	0.180296
456.000000	0.181559
455.000000	0.182624
454.000000	0.184346
453.000000	0.185810
452.000000	0.187592
451.000000	0.190005
450.000000	0.191674
449.000000	0.193672
448.000000	0.196283
447.000000	0.198549
446.000000	0.200617
445.000000	0.202945
444.000000	0.205075
443.000000	0.206390
442.000000	0.207525
441.000000	0.209641
440.000000	0.210653
439.000000	0.210538
438.000000	0.210928
437.000000	0.210712
436.000000	0.209961
435.000000	0.209510
434.000000	0.209049
433.000000	0.208368
432.000000	0.207471
431.000000	0.206459
430.000000	0.205403
429.000000	0.204521
428.000000	0.203526
427.000000	0.202794
426.000000	0.201947
425.000000	0.201484
424.000000	0.200900
423.000000	0.199924
422.000000	0.199915
421.000000	0.199776
420.000000	0.198984
419.000000	0.198502
418.000000	0.198502
417.000000	0.198183
416.000000	0.197506
415.000000	0.196552
414.000000	0.195714
413.000000	0.194358
412.000000	0.192223
411.000000	0.190546
410.000000	0.189053
409.000000	0.186631
408.000000	0.184173
407.000000	0.182005
406.000000	0.179566
405.000000	0.177454
404.000000	0.175143
403.000000	0.173261
402.000000	0.171633
401.000000	0.170582
400.000000	0.169339
399.000000	0.167697
398.000000	0.166314
397.000000	0.165197
396.000000	0.164180
395.000000	0.163570
394.000000	0.161921
393.000000	0.161754
392.000000	0.161480
391.000000	0.160094
390.000000	0.158764
389.000000	0.157642
388.000000	0.156731
387.000000	0.155167
386.000000	0.155624
385.000000	0.154144
384.000000	0.152538
383.000000	0.152517
382.000000	0.151534
381.000000	0.149937
380.000000	0.148017
379.000000	0.147785
378.000000	0.143431
377.000000	0.138735
376.000000	0.135802
375.000000	0.133664
374.000000	0.130639
373.000000	0.130852
372.000000	0.128452
371.000000	0.125404
370.000000	0.123620
369.000000	0.124108
368.000000	0.122584
367.000000	0.120615
366.000000	0.118979
365.000000	0.116522
364.000000	0.117677
363.000000	0.118207
362.000000	0.117060
361.000000	0.115552
360.000000	0.113264
359.000000	0.111724
358.000000	0.110400
357.000000	0.110517
356.000000	0.110302
355.000000	0.112434
354.000000	0.110039
353.000000	0.109373
352.000000	0.110851
351.000000	0.107855
350.000000	0.109433
349.000000	0.109747
348.000000	0.109921
347.000000	0.109291
346.000000	0.111381
345.000000	0.111412
344.000000	0.113409
343.000000	0.114113
342.000000	0.111939
341.000000	0.114774
340.000000	0.115259
339.000000	0.113888
338.000000	0.117498
337.000000	0.114342
336.000000	0.114010
335.000000	0.116664
334.000000	0.113313
333.000000	0.113654
332.000000	0.114519
331.000000	0.114767
330.000000	0.110766
329.000000	0.109731
328.000000	0.111117
327.000000	0.112279
326.000000	0.110079
325.000000	0.109566
324.000000	0.109105
323.000000	0.107642
322.000000	0.108269
321.000000	0.111104
320.000000	0.110669
319.000000	0.109914
318.000000	0.105176
317.000000	0.104916
316.000000	0.107600
315.000000	0.106117
314.000000	0.107518
313.000000	0.108278
312.000000	0.107029
311.000000	0.110200
310.000000	0.113508
309.000000	0.116663
308.000000	0.114785
307.000000	0.115118
306.000000	0.120029
305.000000	0.121901
304.000000	0.126878
303.000000	0.129563
302.000000	0.135311
301.000000	0.138346
300.000000	0.144360
