PE UV       SUBTECH     SPECTRUM    ASCII       PEDS        4.00        
   -1
PETIT_69.Sample.Raw.asc
20/12/16
10:01:44.00
20/12/16
10:01:44.00
CNRS
RCC0156_B_DM
300.000000
1
Lambda 850
850L1011221
PerkinElmer UV WinLab 6.0.3.0730 / 1.61.00 Lambda 800

0
0
2
0
0
UV/VIS
1
1
1
RBeamAtt,SBeamAtt,150mm sphere / downward view
0
0
0
0
Fix
 
0
0.2
0
0
0
 
 
 
0
 
0
319.2
0
Front
50
 
S:100 R:100
 
0
0
0
 
0
 
 
 
0
 
 
0
0
0
0
0
 
 
 
 
0
0


#HDR
-1
-1
#GR
nm
A
1.0
0.0
800.000000
-1.000000
501
8
0.246717
-0.014610
#DATA
800.000000	-0.011945
799.000000	-0.013150
798.000000	-0.013789
797.000000	-0.013230
796.000000	-0.013296
795.000000	-0.013856
794.000000	-0.013171
793.000000	-0.014069
792.000000	-0.013447
791.000000	-0.014153
790.000000	-0.013644
789.000000	-0.013583
788.000000	-0.013003
787.000000	-0.012461
786.000000	-0.013431
785.000000	-0.014418
784.000000	-0.012931
783.000000	-0.013507
782.000000	-0.013502
781.000000	-0.013385
780.000000	-0.013258
779.000000	-0.013341
778.000000	-0.012748
777.000000	-0.011982
776.000000	-0.011969
775.000000	-0.012471
774.000000	-0.013135
773.000000	-0.013359
772.000000	-0.013316
771.000000	-0.013032
770.000000	-0.013554
769.000000	-0.012710
768.000000	-0.014051
767.000000	-0.013839
766.000000	-0.013707
765.000000	-0.013286
764.000000	-0.012994
763.000000	-0.013234
762.000000	-0.012954
761.000000	-0.013654
760.000000	-0.013822
759.000000	-0.012216
758.000000	-0.012629
757.000000	-0.012675
756.000000	-0.012924
755.000000	-0.013785
754.000000	-0.012813
753.000000	-0.013336
752.000000	-0.013850
751.000000	-0.013245
750.000000	-0.013456
749.000000	-0.013145
748.000000	-0.013298
747.000000	-0.012944
746.000000	-0.013158
745.000000	-0.013593
744.000000	-0.013397
743.000000	-0.013415
742.000000	-0.012380
741.000000	-0.012932
740.000000	-0.012732
739.000000	-0.013155
738.000000	-0.013373
737.000000	-0.013891
736.000000	-0.012586
735.000000	-0.013021
734.000000	-0.013857
733.000000	-0.013924
732.000000	-0.013673
731.000000	-0.013045
730.000000	-0.013659
729.000000	-0.013806
728.000000	-0.012796
727.000000	-0.013803
726.000000	-0.014079
725.000000	-0.013463
724.000000	-0.013252
723.000000	-0.013996
722.000000	-0.013518
721.000000	-0.014610
720.000000	-0.014543
719.000000	-0.013727
718.000000	-0.014070
717.000000	-0.013947
716.000000	-0.014070
715.000000	-0.013250
714.000000	-0.013054
713.000000	-0.013600
712.000000	-0.013325
711.000000	-0.013012
710.000000	-0.012964
709.000000	-0.012658
708.000000	-0.012889
707.000000	-0.012474
706.000000	-0.011005
705.000000	-0.011036
704.000000	-0.010304
703.000000	-0.009787
702.000000	-0.009089
701.000000	-0.007670
700.000000	-0.006592
699.000000	-0.006090
698.000000	-0.004926
697.000000	-0.003618
696.000000	-0.001766
695.000000	0.000771
694.000000	0.003255
693.000000	0.005225
692.000000	0.008513
691.000000	0.012164
690.000000	0.015832
689.000000	0.019408
688.000000	0.023782
687.000000	0.028836
686.000000	0.032983
685.000000	0.037214
684.000000	0.041212
683.000000	0.044977
682.000000	0.048459
681.000000	0.051235
680.000000	0.054243
679.000000	0.056898
678.000000	0.058660
677.000000	0.060606
676.000000	0.062652
675.000000	0.063746
674.000000	0.064470
673.000000	0.064696
672.000000	0.063793
671.000000	0.063018
670.000000	0.061154
669.000000	0.058694
668.000000	0.056267
667.000000	0.053470
666.000000	0.050881
665.000000	0.047768
664.000000	0.044701
663.000000	0.041645
662.000000	0.038229
661.000000	0.036031
660.000000	0.033912
659.000000	0.031682
658.000000	0.029637
657.000000	0.027702
656.000000	0.026151
655.000000	0.025378
654.000000	0.024618
653.000000	0.023890
652.000000	0.022993
651.000000	0.022016
650.000000	0.021372
649.000000	0.020579
648.000000	0.019418
647.000000	0.018262
646.000000	0.017164
645.000000	0.016171
644.000000	0.015386
643.000000	0.014533
642.000000	0.013637
641.000000	0.013092
640.000000	0.012606
639.000000	0.011931
638.000000	0.011393
637.000000	0.011063
636.000000	0.010395
635.000000	0.009907
634.000000	0.010341
633.000000	0.010575
632.000000	0.010103
631.000000	0.009430
630.000000	0.009322
629.000000	0.009246
628.000000	0.008991
627.000000	0.008329
626.000000	0.008110
625.000000	0.007451
624.000000	0.007436
623.000000	0.007399
622.000000	0.007275
621.000000	0.007421
620.000000	0.006764
619.000000	0.006442
618.000000	0.006219
617.000000	0.005930
616.000000	0.005520
615.000000	0.005465
614.000000	0.004901
613.000000	0.004815
612.000000	0.004398
611.000000	0.004274
610.000000	0.004322
609.000000	0.003352
608.000000	0.003214
607.000000	0.003128
606.000000	0.003045
605.000000	0.002818
604.000000	0.002577
603.000000	0.002682
602.000000	0.002568
601.000000	0.002665
600.000000	0.002442
599.000000	0.002163
598.000000	0.002089
597.000000	0.001436
596.000000	0.001469
595.000000	0.001384
594.000000	0.001855
593.000000	0.001373
592.000000	0.000664
591.000000	0.000894
590.000000	0.000749
589.000000	0.000717
588.000000	0.000391
587.000000	-0.000413
586.000000	0.000210
585.000000	-0.000298
584.000000	-0.000650
583.000000	-0.000662
582.000000	-0.000634
581.000000	-0.001014
580.000000	-0.001121
579.000000	-0.001881
578.000000	-0.001663
577.000000	-0.001563
576.000000	-0.001796
575.000000	-0.001893
574.000000	-0.001856
573.000000	-0.001779
572.000000	-0.001850
571.000000	-0.001857
570.000000	-0.001991
569.000000	-0.002257
568.000000	-0.001941
567.000000	-0.001713
566.000000	-0.001519
565.000000	-0.002059
564.000000	-0.001803
563.000000	-0.001694
562.000000	-0.001538
561.000000	-0.000919
560.000000	-0.000488
559.000000	-0.000027
558.000000	0.000061
557.000000	0.000483
556.000000	0.000471
555.000000	0.001189
554.000000	0.001634
553.000000	0.002149
552.000000	0.002695
551.000000	0.003400
550.000000	0.003301
549.000000	0.004899
548.000000	0.005735
547.000000	0.006243
546.000000	0.007250
545.000000	0.007408
544.000000	0.008893
543.000000	0.009273
542.000000	0.010196
541.000000	0.011239
540.000000	0.012380
539.000000	0.013139
538.000000	0.014622
537.000000	0.016205
536.000000	0.017199
535.000000	0.018890
534.000000	0.019653
533.000000	0.021178
532.000000	0.023166
531.000000	0.025012
530.000000	0.025999
529.000000	0.027528
528.000000	0.030266
527.000000	0.032308
526.000000	0.034705
525.000000	0.036952
524.000000	0.039103
523.000000	0.042298
522.000000	0.044608
521.000000	0.048131
520.000000	0.051066
519.000000	0.054757
518.000000	0.058601
517.000000	0.062692
516.000000	0.066723
515.000000	0.070521
514.000000	0.075166
513.000000	0.079548
512.000000	0.083900
511.000000	0.088912
510.000000	0.093594
509.000000	0.097900
508.000000	0.102158
507.000000	0.107034
506.000000	0.111535
505.000000	0.116270
504.000000	0.120874
503.000000	0.124999
502.000000	0.128873
501.000000	0.132869
500.000000	0.136660
499.000000	0.139762
498.000000	0.142443
497.000000	0.145402
496.000000	0.148199
495.000000	0.151626
494.000000	0.154079
493.000000	0.156282
492.000000	0.158495
491.000000	0.160837
490.000000	0.162710
489.000000	0.164486
488.000000	0.166442
487.000000	0.168690
486.000000	0.169884
485.000000	0.171341
484.000000	0.173365
483.000000	0.174849
482.000000	0.176681
481.000000	0.177973
480.000000	0.179731
479.000000	0.181470
478.000000	0.183500
477.000000	0.185826
476.000000	0.188297
475.000000	0.191143
474.000000	0.193143
473.000000	0.195628
472.000000	0.198026
471.000000	0.201054
470.000000	0.204119
469.000000	0.206273
468.000000	0.209359
467.000000	0.211534
466.000000	0.213492
465.000000	0.216616
464.000000	0.219358
463.000000	0.221748
462.000000	0.223794
461.000000	0.225165
460.000000	0.227669
459.000000	0.229764
458.000000	0.231944
457.000000	0.234260
456.000000	0.235739
455.000000	0.238062
454.000000	0.239125
453.000000	0.241069
452.000000	0.242199
451.000000	0.243585
450.000000	0.244676
449.000000	0.245879
448.000000	0.246420
447.000000	0.246717
446.000000	0.246221
445.000000	0.246058
444.000000	0.246293
443.000000	0.246134
442.000000	0.245010
441.000000	0.243637
440.000000	0.242755
439.000000	0.241575
438.000000	0.240104
437.000000	0.238877
436.000000	0.238137
435.000000	0.236527
434.000000	0.235080
433.000000	0.234146
432.000000	0.232466
431.000000	0.231289
430.000000	0.231050
429.000000	0.229503
428.000000	0.227676
427.000000	0.226687
426.000000	0.225050
425.000000	0.222725
424.000000	0.221169
423.000000	0.219578
422.000000	0.217096
421.000000	0.215203
420.000000	0.213874
419.000000	0.212041
418.000000	0.209674
417.000000	0.207922
416.000000	0.206413
415.000000	0.204404
414.000000	0.202988
413.000000	0.201538
412.000000	0.199221
411.000000	0.197671
410.000000	0.196586
409.000000	0.195158
408.000000	0.193849
407.000000	0.192503
406.000000	0.191812
405.000000	0.191613
404.000000	0.191312
403.000000	0.190154
402.000000	0.189498
401.000000	0.189990
400.000000	0.190033
399.000000	0.189793
398.000000	0.189626
397.000000	0.189315
396.000000	0.189422
395.000000	0.190572
394.000000	0.190548
393.000000	0.189636
392.000000	0.189981
391.000000	0.188965
390.000000	0.188304
389.000000	0.187875
388.000000	0.186495
387.000000	0.184532
386.000000	0.182975
385.000000	0.180373
384.000000	0.177477
383.000000	0.175003
382.000000	0.172110
381.000000	0.167805
380.000000	0.162914
379.000000	0.159421
378.000000	0.153733
377.000000	0.144494
376.000000	0.140531
375.000000	0.135913
374.000000	0.129999
373.000000	0.127374
372.000000	0.123608
371.000000	0.118614
370.000000	0.112881
369.000000	0.109401
368.000000	0.105511
367.000000	0.103037
366.000000	0.100250
365.000000	0.096330
364.000000	0.094918
363.000000	0.093167
362.000000	0.091363
361.000000	0.087889
360.000000	0.085429
359.000000	0.082238
358.000000	0.081588
357.000000	0.079597
356.000000	0.078677
355.000000	0.081911
354.000000	0.079293
353.000000	0.076316
352.000000	0.076580
351.000000	0.073904
350.000000	0.073892
349.000000	0.074559
348.000000	0.074990
347.000000	0.074963
346.000000	0.074986
345.000000	0.074665
344.000000	0.073410
343.000000	0.072091
342.000000	0.073129
341.000000	0.073747
340.000000	0.072425
339.000000	0.071384
338.000000	0.073132
337.000000	0.069816
336.000000	0.067287
335.000000	0.069589
334.000000	0.067349
333.000000	0.070230
332.000000	0.067678
331.000000	0.067653
330.000000	0.065885
329.000000	0.063414
328.000000	0.064731
327.000000	0.067085
326.000000	0.062210
325.000000	0.060916
324.000000	0.063073
323.000000	0.066556
322.000000	0.062941
321.000000	0.066283
320.000000	0.066001
319.000000	0.066215
318.000000	0.064201
317.000000	0.063003
316.000000	0.065007
315.000000	0.066095
314.000000	0.067944
313.000000	0.069558
312.000000	0.067777
311.000000	0.071359
310.000000	0.074039
309.000000	0.075621
308.000000	0.076403
307.000000	0.077727
306.000000	0.082634
305.000000	0.087442
304.000000	0.091120
303.000000	0.096040
302.000000	0.101660
301.000000	0.106308
300.000000	0.110300
